unconvertedTime, unconvertedIntensity
-1016.3735362589063,0.01290684580449781
-1013.237402647634,0.015582188585712364
-1011.6677461964466,0.01925832925150578
-1010.4906670855158,0.015245197890896336
-1008.9214458601286,0.01014013671344709
-1007.7407708252947,0.009462119287774393
-1006.175906920079,0.012307853396629799
-1004.9955591882951,0.019202277188215416
-1003.819272875662,0.019971433109967
-1002.2550285961322,0.02176972855573123
-1001.0790678396854,0.022273057306674653
-999.8993275954429,0.022846915064705955
-998.3357025736506,0.021377789587780773
-997.1523711613738,0.02124617932590689
-995.9848516814188,0.01664106480712276
-994.4179279309644,0.0283685558968074
-993.2428979195197,0.021518297784272104
-992.0680074245141,0.025540361370057114
-990.5017037471363,0.023987027313618698
-989.3232237102129,0.019265314882555465
-988.1527130742562,0.019036695631550887
-986.5870291019603,0.01755471811190298
-985.4090152961002,0.01169845878370529
-983.8437655178235,0.001260087820106541
-982.6660783750061,0.002493672217343832
-981.1051743408526,0.01071129563957027
-979.9317245260503,0.0017453670923545314
-978.3673413566444,0.007620474117835955
-977.1942163852142,0.006223878585046767
-975.630266250379,0.008400829555797525
-974.4574659874489,0.0001441563443855463
-973.2848048440399,0.0003352951792713426
-971.72538103947,0.0005206832200106932
-970.549136390737,0.00236247032756153
-968.9862371630223,0.00613550414676139
-967.8142249168496,0.006904515530849294
-966.2556639667455,0.01021441075383219
-965.0800701082223,0.011226730973166364
-963.9085210303691,0.011475305159132691
-962.3466716508918,0.007972482377217156
-961.1754466275154,0.007945782129572745
-959.6179324668268,0.0076749506940227835
-958.4470309008543,0.009670078999009612
-956.8821425350645,0.015922594621661495
-955.7154669113688,0.0184275899177847
-954.1510112494897,0.012613884943343588
-952.984658198451,0.007619128826892178
-951.4206350610336,0.009691696622050218
-950.2546044488968,0.013048736935102109
-949.084812447025,0.007413369547007234
-947.5175084330986,0.0008790954317748173
-946.355836673585,0.0012343182663127705
-945.1826089891183,0.005928189743806097
-943.6237181835298,0.01639461288498812
-942.4586080889884,0.013964355072393348
-940.9001474243976,0.006939418701476229
-939.7275680282658,0.0036161111791694098
-938.5590228631099,0.0011372512697448683
-937.0050721759746,0.0
-935.8368493587831,0.0021427108650296446
-934.2755408439218,0.009872710194159853
-933.1115339323496,0.007315412834517301
-931.5506566375599,0.003868526572980134
-930.3869711925581,0.0029866874164028796
-928.8304160193379,0.0010020336508237222
-927.663160827627,0.009959476810546526
-926.4960437699868,0.003536163333904666
-924.9401025259623,0.004216403265894577
-923.7655295168003,0.010627799794416483
-922.6027622728632,0.018750288075323286
-921.0474352082789,0.011970435134813303
-919.8811009073214,0.009885643508287611
-918.7187916689417,0.013521066894072018
-917.1640771941649,0.026783031000411406
-915.9982022404622,0.01494568023520314
-914.4439167921802,0.011460355222707103
-913.2783635417481,0.01212376396681745
-912.1129481233904,0.009855346875867527
-910.5553913869038,0.003185054078875754
-909.3902979408615,0.014729791298047837
-907.8409370909984,0.015426921470270558
-906.6722822209975,0.01009159291456327
-905.5076478483676,0.008695516187184628
-903.9550161659305,0.007077626711304774
-902.7945837986051,0.006405007144913507
-901.2423796693432,0.005891935090821778
-900.0745073399952,0.002123437480495337
-898.9106527697055,0.002180853542334072
-897.3629392842813,0.006089819382303681
-896.1916486900814,0.013335109442823524
-895.0321306770308,0.011474408611036822
-893.4850266598929,0.006893973713543221
-892.3219506509956,0.014374286162566446
-891.1551358026682,0.012899722963801314
-889.6047652720085,0.011280949594772126
-888.4460227666597,0.012602442596693457
-886.8922043016602,0.013512498643223217
-885.7299069883035,0.01322763212052337
-884.1842642270703,0.015679010969323465
-883.0184136510247,0.015332744012876941
-881.473196699472,0.012461371481003148
-880.307667281899,0.011668298683709647
-879.1461474252221,0.018694982739863038
-877.6015384680426,0.008637763150705932
-876.4325971808356,0.008004028177177455
-874.8922840435381,0.009309545754942054
-873.7275340299966,0.006371513862602056
-872.1799068980852,0.006975491962813816
-871.0193463525842,0.011329774312344857
-869.4721453170623,0.014048575888256084
-868.3157715205883,0.01662757127691999
-867.1556669160067,0.013843562249882238
-865.6052074979589,0.01407717566864916
-864.4454226675025,0.01630130506256035
-863.2857746472002,0.017171407664222236
-861.7397900607607,0.017574766815682923
-860.5804611700308,0.017109906733067667
-859.0349020018613,0.017070637290866126
-857.8758921089842,0.015325134662477636
-856.3346207154124,0.013942396154537198
-855.1720671568436,0.013335434744545993
-853.631219767948,0.015463261763705318
-852.4728470206779,0.00927403518952269
-851.3146108337862,0.0101288760212257
-849.7666483512581,0.009823704171639533
-848.608731166331,0.011782781741532957
-847.0650538842256,0.010898100641444928
-845.9113135506465,0.009762656154501453
-844.3642022989202,0.014112409823339089
-843.2069218134916,0.014270777665001788
-841.664093288971,0.014093840966107427
-840.5109872710389,0.01574413562185473
-839.3541607951723,0.014845283232955838
-837.8119374919149,0.015471549013460931
-836.6515741811448,0.019396366024533103
-835.4952023558425,0.023309827903542912
-833.9535851283894,0.027178313311314012
-832.7975310813154,0.030151855096280624
-831.2563374708359,0.027929889564964665
-830.1044532996025,0.026492370460760077
-828.9450007656628,0.02176279702635818
-827.4044120194703,0.013267524669007368
-826.2491291743924,0.012000867154527816
-825.0939823436696,0.011618919309175193
-823.5539981057499,0.015215611904521514
-822.403017754515,0.015961287382390048
-820.863455856631,0.013847607826831667
-819.7050948401385,0.017608813393457514
-818.1659563162395,0.01875684415864788
-817.0117609138274,0.017719022410102116
-815.4768914745043,0.01566905302282589
-814.3230125010742,0.014179278646203285
-813.1654237104739,0.016122313778997355
-811.6273111887695,0.022495089025388423
-810.4738851295591,0.027483787734548775
-809.3205947569442,0.026550673270758423
-807.7869287597848,0.02073589444901537
-806.63395444407,0.0210792481363987
-805.0930238780488,0.026184395015415154
-803.9403663930755,0.02887267289384593
-802.7916859737434,0.02696621270476722
-801.2513593629272,0.02327964194142056
-800.1029940824064,0.018203298357837367
-798.5669298877237,0.020329047578584152
-797.4150397576177,0.01941427977316437
-795.8717192837149,0.015834019168793474
-794.7278226959196,0.014272554532046138
-793.1926009885934,0.009742897763869498
-792.0375052923144,0.012655083268906625
-790.5027051700506,0.019520983537894894
-789.3517628992486,0.015629483580302445
-787.8173835873818,0.02059758112654655
-786.6667568594786,0.024610789638879003
-785.5201000717642,0.024116809830159305
-783.9824868702142,0.022995141703227667
-782.8323106928237,0.015435154665817049
-781.2989526288246,0.014628605075070208
-780.1490916793641,0.017303785890215802
-778.6161538328662,0.02007018467176098
-777.4666079817492,0.017525081918772625
-776.3171971331368,0.018040597574030936
-774.7848592977712,0.01996293745983148
-773.6395934581692,0.018179136334461492
-772.1038453253686,0.028352911824826348
-770.9512351291198,0.03108121370786092
-769.8102464875581,0.030498603579919077
-768.2750992660026,0.02634812404858782
-767.1267675817656,0.027171256672534422
-765.5996952860022,0.03481296090183951
-764.4440246236585,0.03104718121179044
-763.2999686414661,0.03481008071313342
-761.7696682110702,0.03965259832707148
-760.6221000156578,0.033102218891493534
-759.0922185465578,0.030446610530434227
-757.9449645075964,0.022114225933667218
-756.4155018277618,0.022384674085835093
-755.2723847261317,0.022142537720071537
-753.7395177537645,0.026647335181028752
-752.5928916408183,0.029840305122773383
-751.0642660238055,0.02555292915931716
-749.9179536805647,0.027603578078560925
-748.3897463372955,0.028651093373075056
-747.2437476349809,0.025576853133739946
-745.7197775690782,0.02730739506238445
-744.5740919312035,0.026442917886055035
-743.4285406164126,0.026168194145897685
-741.8975300865625,0.02240509459363982
-740.7522925479549,0.022052525500079672
-739.2255179835026,0.016870720603939193
-738.0805936448438,0.017762718707001465
-736.5542365946704,0.016255442082619337
-735.4134404755579,0.01994399713951688
-734.265148194505,0.01851524707845822
-732.7393872962762,0.010232706976906602
-731.5952230513712,0.014417954250445897
-730.0736923141122,0.018078496958985852
-728.9260277666124,0.022026444098912287
-727.7823102821583,0.019579355297231073
-726.2575620409912,0.016951142726853857
-725.1141571331754,0.018786916900458358
-723.5898255754358,0.022292234537740936
-722.446733116141,0.020691176903638333
-721.3037745241476,0.021636955539163744
-719.780037932211,0.01884377828141625
-718.6412002046637,0.021552427427365038
-717.4948790683833,0.02402743565894036
-715.9717370939877,0.02974249581911496
-714.8295366393812,0.021656506428405928
-713.3068106901915,0.018851294582003547
-711.7881283176271,0.01956105084777451
-710.6426120961564,0.019493948866460886
-709.5010354237418,0.028968124822437203
-707.9753365753385,0.025506169075807262
-706.8378760408502,0.02652075410812656
-705.69674461434,0.030540620088745137
-704.1754437440148,0.033510964158063344
-703.0384263459803,0.029163821242073347
-701.5137382355193,0.02968877154580998
-700.3732297157891,0.029116793118132017
-698.852759217807,0.028475938044507283
-697.7125619602175,0.03435268807530708
-696.1925063934785,0.03688096655122353
-695.0526202706305,0.03389258111126836
-693.9166664069097,0.027943707467879653
-692.3934043498621,0.01848747376366114
-691.2539624843404,0.02446895706760826
-690.1146538453728,0.0253123116232905
-688.5957828610086,0.026380266085108822
-687.4605814315165,0.024943348887866538
-685.93832828549,0.025307872195428797
-684.7996410616029,0.023838606365433685
-683.2853932727038,0.022937949709420473
-682.1432217541957,0.0198363363885943
-680.6255930916395,0.019745983056791504
-679.4837334425608,0.02458087572079633
-678.3495934428594,0.02352620053485467
-676.8325558264687,0.021618460342558515
-675.6949327033719,0.02102472396992677
-674.1783086138817,0.02430657054934993
-673.040995572552,0.028981919011440312
-671.5247848408998,0.028429161959387547
-670.3915715442566,0.025360424195062063
-668.8681950137393,0.02772161955794495
-667.73529095379,0.017869343596032417
-666.6025187551433,0.015916200297764208
-665.0835228746841,0.021307604861270372
-663.9510592914183,0.02459955586006145
-662.4324772219287,0.020639267709710106
-661.3003221279403,0.019800010416367635
-659.7821537003442,0.021891560305452296
-658.2680072251998,0.01626491062252973
-657.1325520149114,0.0177947750785961
-655.6226019267683,0.01657663853183102
-654.483671870773,0.01709177749450843
-652.9741329292974,0.018438777380474728
-651.8355129732324,0.014581123902259241
-650.7045905766896,0.013788663099628395
-649.1880750277603,0.010850806000890388
-648.0536793920706,0.01154648575980627
-646.5413577399798,0.019089100552147048
-645.4072708675102,0.019455052297917438
-643.8953608156709,0.01917800563994916
-642.7653616214956,0.019202134723241344
-641.2500839607843,0.01600508828480612
-640.1203922495272,0.0197482759846468
-638.6093043068546,0.02202490856676407
-637.4723655426344,0.025834922609364014
-636.3393363304447,0.028257827310788162
-634.8250602484607,0.024852809654660368
-633.696115197885,0.024563465879792818
-632.1860259288604,0.020316096475133157
-630.676171359948,0.018548243273844474
-629.5477083262049,0.01644439944372873
-628.4118294496116,0.01802467708103818
-626.9063342693684,0.02556024613627174
-625.7707642475018,0.020584286879032295
-624.6428709898969,0.021533781758302457
-623.1341885152067,0.02707974819673462
-621.9990594958969,0.03021275800414984
-620.8678337003165,0.025599445027143595
-619.3559676928703,0.018199380416552318
-618.2288193139414,0.02040972640358906
-616.7211331295953,0.025239926564019063
-615.5942906332858,0.02769769850165543
-614.0794777759629,0.02267154663913519
-612.9567093729949,0.023255989561925695
-611.8227697782041,0.015382586856196898
-610.3198447497888,0.015951104271367617
-609.1899792175968,0.018398528083866078
-607.6799310577945,0.016273460620509102
-606.5503728796309,0.022158082448899958
-605.0444998555594,0.021212787335632314
-603.9152484678476,0.021307987874674764
-602.4135477831951,0.016802982721064612
-601.2808396921516,0.01798445799788353
-600.1520263597447,0.020504743469530243
-598.6509081701552,0.017750234645039727
-597.5224008870694,0.016323544027780603
-596.3940249174469,0.01743709406569747
-594.8897278503998,0.020076405837154882
-593.7578981770237,0.02710822955774332
-592.6299601908885,0.024028133515528554
-591.1262469829363,0.02183153082193352
-590.0023736824281,0.022966274383471465
-588.4953100106379,0.016701804878647704
-587.3717416962442,0.018588309484763532
-585.8650869694076,0.020525320744913016
-584.7380670014892,0.02167355646936567
-583.2355775686955,0.023683332670754318
-582.1126188542183,0.023196984219930182
-580.9822801475457,0.025858073362186807
-579.4803729398159,0.022274620675312575
-577.9786985273633,0.026327393823915572
-576.8525954573585,0.022142389094162284
-575.7303763046082,0.020170654624033762
-574.2255306204089,0.013103286854635526
-573.0998637752367,0.009592108190563936
-571.9743277480882,0.013764982391558997
-570.4738165005152,0.01700791734872219
-569.3485856267491,0.01816895274692264
-568.2234854950175,0.018312230934512872
-566.7235553231568,0.022264145138388494
-565.5987601675678,0.028780934863841073
-564.0992365478996,0.02558076715078462
-562.9747462444692,0.02793681616102351
-561.850386554026,0.026640733573900593
-560.3514434365298,0.028785596097955824
-559.2273884212384,0.030967032312319134
-557.7325975078193,0.02706022782513686
-556.6051009907541,0.021837879846450654
-555.1069700101554,0.02221702505567287
-553.9872685772133,0.029607967484541035
-552.4895428379498,0.030832752810207215
-551.3626570816186,0.02877696241561639
-549.8653375780692,0.03169176261371576
-548.7425000258249,0.028703625038679785
-547.2455860135764,0.02723434726410571
-546.1230525180387,0.027852946310271916
-545.00064929471,0.024450019153145732
-543.5043142700788,0.02126159955751958
-542.3822149270679,0.022529441706085538
-540.8862849939135,0.019269048271534448
-539.76448940783,0.020627362436002036
-538.268964401679,0.025528929343937606
-537.1474724491894,0.025090150997266154
-535.6523522056578,0.027465495091631174
-534.5311637635074,0.03029216689743353
-533.036448118287,0.028437594836965712
-531.9155630632832,0.033031216547994645
-530.7948079936466,0.03927383303269887
-529.3006700611818,0.04038998508222321
-528.1802182028207,0.04352473224547035
-526.6864844700223,0.03842073844515742
-525.56260208783,0.03455834233388775
-524.0730060027728,0.04193465367456868
-522.9531601979356,0.048985912395624866
-521.4602343725701,0.0372929095301594
-520.3406914101113,0.03512454782131989
-519.2212781996423,0.03148576561774397
-517.728929049787,0.031108877067289386
-516.6098185062427,0.031303164433947865
-515.490837639526,0.029923570397725016
-513.9990648311111,0.03578028268830158
-512.8803864560036,0.03706892268581964
-511.38901688797193,0.038860390703184
-510.2706408818342,0.03899164604203071
-508.7834015198077,0.041778570018596035
-507.66160063096453,0.04631604114716471
-506.1673109328473,0.04991346251912481
-505.0532654174932,0.049646428459544256
-503.5631045900832,0.05001160283948865
-502.44563495567877,0.0487958753610118
-501.3282947129974,0.050933872983036386
-499.8387089599288,0.05474644596115307
-498.7216705438911,0.05926671899012509
-497.23248714481355,0.062330173610351536
-496.11947267410477,0.07008610986015017
-494.63069089158193,0.07690836613219447
-493.5105340955163,0.07568203151836754
-492.02215491551885,0.07393708911113789
-490.9097414769817,0.07488498270154814
-489.79001673619734,0.08114586167842729
-488.3022115996033,0.0816318865925101
-487.18650837543476,0.07992940258686106
-486.07093423632267,0.08768058463397224
-484.58742060361595,0.09376983390915503
-483.468429783346,0.10060678409685604
-482.3532857659951,0.11493531448148972
-480.8666277203655,0.12302534221744947
-479.7517846402574,0.12689754987082247
-478.63707049596536,0.13578851804581918
-477.15098549840366,0.1487283773709024
-476.03657211736703,0.14912182959512416
-474.9260016653165,0.15235002292607713
-473.436775316852,0.15571018077205795
-471.95520495284933,0.15908742909354795
-470.8413923040452,0.16206307568025885
-469.7239963479926,0.16545480325532191
-468.2392853147115,0.16830750251189525
-467.12590219841286,0.16148267142914358
-466.0126477647365,0.1678605847782334
-464.5285086542596,0.1759372796320338
-463.41555439330904,0.1723376534060028
-461.93181543218753,0.17083812006324017
-460.8191612225646,0.1702170425204982
-459.3358222489976,0.16752080746805623
-458.22346796938274,0.16821789984264104
-456.74052882163977,0.16534488761235483
-455.6284743507759,0.1614957202161355
-454.1459348672268,0.1624052593812173
-453.03418008391907,0.14905613595543166
-451.92255370104834,0.14325242846007438
-450.44058488613365,0.13359811315087478
-449.32925801780203,0.12801432513764202
-448.21805947578594,0.12903159299057534
-446.7366610000681,0.13150154101792863
-445.6257617997016,0.12477602627202447
-444.14476236554475,0.11960394894606043
-443.0341623858877,0.11882675287438724
-441.55356183207914,0.11691164228755714
-440.44326095225125,0.11227668398397703
-438.9630591176703,0.10661624289165733
-437.8530572168643,0.09933350324528593
-436.74318341295657,0.09350549597541799
-435.2635508979346,0.09693500556427051
-434.15397590057387,0.09742692628347657
-432.6747417138325,0.09940477701498089
-431.5617680286654,0.10012885130076704
-430.4563170622148,0.09135065537151503
-428.97765163690946,0.0896181505615888
-427.8688018104053,0.08729314955442889
-426.3905343229512,0.08487603666788204
-425.2819828895905,0.08443180544283016
-423.8041131793659,0.09276828688977151
-422.6958600187262,0.09543192999211587
-421.58773465239756,0.09326398535812398
-420.11043291690925,0.0874856040183651
-418.9989131074068,0.08812678809176105
-417.5257013034017,0.0899385873170286
-416.4181720183683,0.09009036081484605
-415.31077040246936,0.09075931120614027
-413.8344334728719,0.08882825646639206
-412.7273296657721,0.08946351896608663
-411.6203534542491,0.08342150015205047
-410.1445836160857,0.08393350676991197
-409.03790504178403,0.08568019349919682
-407.9313539895557,0.09158267226332252
-406.4561509161427,0.08980224525616215
-405.3498973296936,0.08858526741405777
-404.2437711918658,0.08511168471126748
-402.7691345567688,0.08380519823887381
-401.6633057134136,0.08489231736060021
-400.55760424528734,0.08714533645764755
-399.0835337223242,0.0913899765992922
-397.97812937748853,0.09412705985959521
-396.8728523345491,0.09099593009671121
-395.3956641194491,0.09671583307829712
-394.2943675070863,0.10010990871485193
-392.8212586268705,0.10383452424362713
-391.7165753687587,0.09821366417015243
-390.2438621855895,0.09557452142924192
-389.1394756404737,0.09308263323745584
-387.66715799493545,0.09549864265543744
-386.56306804329046,0.0951749571213334
-385.4591051665558,0.09696711049354129
-383.98367319924785,0.09725248065982417
-382.88368584450814,0.10234279124388385
-381.40865001580437,0.10566018396946379
-380.3052802885576,0.1049456948652254
-378.834318127139,0.1038690385599426
-377.73492128487163,0.0986531507887407
-376.2643533919901,0.09410094849188975
-375.16157549058295,0.09066192115255599
-374.0589244376506,0.09091054944018571
-372.58892031575806,0.09400653487640241
-371.48656515749025,0.09786818185800814
-370.38433677476286,0.09681683939634482
-368.91489609972626,0.08504997067082948
-367.81296344155754,0.08852964765588295
-366.3402446526783,0.09111739116718369
-364.8714239580297,0.08446967450298072
-363.7699561915956,0.08402411237674876
-362.6722859744944,0.08974040989502742
-361.20402748389165,0.08735354294017154
-360.1029812856768,0.0872354130607489
-359.00206163726614,0.08659110443762545
-357.5343655902745,0.08607840693833078
-356.43374113992303,0.08113503717703406
-354.9664386111871,0.08237461536809396
-353.86610924017475,0.08699848520796406
-352.76590629541903,0.093331467505073
-351.2991656611322,0.08635341599906943
-350.1992576262304,0.0831655540434286
-348.7292445387394,0.0892372856580558
-347.6332968824447,0.09487870811126418
-346.1673423583159,0.08849966533473984
-345.0643596034162,0.08112056368447208
-343.6024620814961,0.07633762555230185
-342.50343806506856,0.073083605352201
-341.0382690192791,0.06398476247470279
-339.93953943885214,0.06086293714000101
-338.47476289551844,0.0583255903403625
-337.3726663927879,0.05668219661582954
-335.90828275458534,0.054613990330649904
-334.8138023709184,0.05282282608905253
-333.7157873569346,0.04734659143122902
-332.24830409823414,0.04762260165223789
-331.1505835348525,0.047525389697708954
-329.6871520773372,0.044672529288093836
-328.593383305985,0.04060736311425366
-327.1266857733098,0.0468842781707298
-326.0295529166696,0.042041221515998796
-324.5705612518312,0.03745809049107308
-323.473721652138,0.03302970588362755
-322.3733523755306,0.03837774162244792
-320.91126359286085,0.034725577908444855
-319.8184982697446,0.03418207468544241
-318.72220375663204,0.03482567030657208
-317.26067331776045,0.034732187697218045
-315.7993663503066,0.03174200409914338
-314.69988017845117,0.03446019152460058
-313.2389647210557,0.0368200660342648
-312.1470762828242,0.034072798990362585
-310.6829000285553,0.030766712301798088
-309.5913036507453,0.02159833151375754
-308.4925315948009,0.020353903780324773
-307.03256493798943,0.017904795018201056
-305.9377363659959,0.014600825262760577
-304.84303327341166,0.012473229474294033
-303.38727254725603,0.014481875221978498
-302.28921391172054,0.0153312469504745
-300.83019513148724,0.01841023400334129
-299.73607732435806,0.021307126277414486
-298.27744857795517,0.022405158839629416
-297.1836232375523,0.022821931945508054
-296.0935686627882,0.019091926595224514
-294.6354962795602,0.022275389783010018
-293.5384436434914,0.02235909796006775
-292.0807614712254,0.020482142023887435
-290.9876459191189,0.02171744725036713
-289.53035324488144,0.024623120051300056
-288.4411722948359,0.023967886353164953
-287.34847352549986,0.022743457834091946
-285.8880948862556,0.02778642644812213
-284.7993295788904,0.031736153027599134
-283.33934103164677,0.0324916494470438
-282.24722635803823,0.031629354234274445
-280.79126792108417,0.02745161119492437
-279.7030841138827,0.027510221361778317
-278.60774686486667,0.027106527380766462
-277.1523438193713,0.03021034631059504
-276.0645750842536,0.029403751102531732
-274.9732930100912,0.03722398856635429
-273.51844448340466,0.03290983314496736
-272.4238173126847,0.020119989359682882
-271.33295180529257,0.022572536468228172
-269.88229404620387,0.02516766687707877
-268.79171928667915,0.02453427221786548
-267.69763465120604,0.020163210127523108
-266.2438958746721,0.023956417010051547
-265.15737093189557,0.025997771850056743
-263.7003864191433,0.028476066879034
-262.6105187022678,0.029526148751120578
-261.15755560780775,0.022764187235996356
-260.0679786552931,0.025180557637672324
-258.6190343316987,0.02700735977764024
-257.52974761207713,0.020789735858018445
-256.07755902564367,0.02137281169101192
-254.98856283793268,0.021924798728493056
-253.89606176407798,0.02379705238461251
-252.4480557778634,0.025344300855530893
-251.35947443414165,0.026560167768737403
-249.90459831721762,0.028846999399531385
-248.81993506684128,0.030203935530931855
-247.3654468394072,0.023430666413651068
-246.27744629355186,0.02774002655759404
-245.1931961027821,0.027430899513938307
-243.73926173416504,0.027233995670564965
-242.6516754635617,0.022103589526121445
-241.56783809649514,0.021643193112389884
-240.11808138549026,0.031936286542428055
-239.0272850384765,0.031760928587541794
-237.57791520524373,0.02879612696245419
-236.49103265974213,0.029125154717206506
-235.04204899788039,0.022705987264860422
-233.9554560230276,0.025023078419615905
-232.5104795973591,0.027013994230140097
-231.42055485830696,0.02053692664550513
-230.3343753551118,0.014681213114076386
-228.8899487370359,0.015118334835937093
-227.80043868225644,0.01878395689764816
-226.35639674280304,0.021349576608761044
-225.26717682622242,0.0254691505952867
-224.1853177347748,0.02604762742986903
-222.73458951747438,0.02328040500682935
-221.65301847196477,0.02160145257049968
-220.56433707605805,0.02358332323657872
-219.11777724684785,0.03870973204708643
-218.0366174960236,0.031694440305269474
-216.94835007507746,0.026651319880204465
-215.5023402687146,0.027407825079619003
-214.41797724004556,0.029875039433294295
-212.97235226304454,0.02876103149113495
-211.88827779878986,0.023574770636748378
-210.44303749755176,0.02165963672784847
-209.3628638972849,0.018890514444151657
-207.91439570354112,0.02246232418420534
-206.8345094763754,0.02117604108490225
-205.74752387832194,0.02467273659372647
-204.30682764373134,0.0222957240303131
-203.22013117612437,0.01542719001213811
-201.77981813101002,0.018276885269842686
-200.33611444987065,0.020878299826812805
-199.25348067000417,0.01820889489912441
-197.8065528734701,0.020834108445237226
-196.72420737923977,0.03247323604899933
-195.28487897679608,0.03953352903544049
-194.20282083106358,0.03975441310416536
-193.11727973239678,0.03266889942974105
-191.6748922218566,0.032110563880158954
-190.59324537309715,0.0335639822074256
-189.1548459841304,0.031756902972897155
-188.07348620570858,0.03667300041051261
-186.6282609844271,0.044272953101424095
-185.55079235176595,0.045516169880291966
-184.10595116705056,0.04813014657024338
-183.02876882878255,0.04287577660976032
-181.58791339204285,0.03691534970891268
-180.5038139152766,0.029721323936646133
-179.4234393267982,0.0261950888143256
-177.983131209586,0.020480572866414474
-176.9066436828142,0.020772412580197235
-175.82307893427208,0.02066118458087635
-174.38691641016533,0.019261467595577533
-173.3036394283439,0.02437767513492324
-172.22408446206495,0.02470215437101307
-170.7848689567668,0.023896447658842072
-169.70560063791345,0.029770450822683158
-168.6264551330126,0.02878050509343209
-167.1877854675011,0.02427374608935262
-166.11252243980402,0.021852572328066127
-165.03378575425742,0.022780812025578946
-163.59206603434743,0.02350542003423886
-162.51361607935223,0.028700794406797698
-161.0794677133295,0.035667532461659095
-160.00130355700853,0.032575335932710454
-158.9196687594869,0.0329080140946957
-157.48247131129415,0.029642798654051488
-156.40471623396132,0.027938112861511624
-155.3270837123809,0.023427279980015474
-153.89043095642816,0.021354867585221093
-152.81308431698656,0.020509023294422116
-151.73945070737432,0.024821472850568283
-150.29975179032803,0.036187490938569336
-149.22640294806166,0.035545713272023875
-147.787085867101,0.0413013229811433
-146.3515759573934,0.03946768198966502
-145.27508628213675,0.04240948670711485
-144.19871894685463,0.04319280391336067
-142.76375277040478,0.037598160013422664
-141.6840840786092,0.03988452513601765
-140.61529745726182,0.03556331537646859
-139.17728837599495,0.03086862066365191
-138.1016139068332,0.03208035877173434
-136.66757136819075,0.03964046793528727
-135.59576643070164,0.03576581861611102
-134.1585195260305,0.03751239923357739
-133.0834151502824,0.03923755904239758
-132.00843287844552,0.039926945637248225
-130.57531308612795,0.03327884020242274
-129.50419776461925,0.023845922995663776
-128.0678755457345,0.028930855721322278
-126.9934628171925,0.03360384473965325
-125.9227528412841,0.027024586008586413
-124.48339391525056,0.02523411268037206
-123.4129679494433,0.032962627352559865
-121.98472861866357,0.040152872621412754
-120.91100646384282,0.03651536571241356
-119.83382771368228,0.03566731998008979
-118.40255074415036,0.038940599448103394
-117.3328126594076,0.03372968630204615
-115.89833713697038,0.026977504370720246
-114.82530570203491,0.02622537016680369
-113.75239601803504,0.02664496159676629
-112.32203912724613,0.0308355066739282
-111.25298866499921,0.033701168724128074
-109.81943515552439,0.027065237926435507
-108.7435190994852,0.024984008051563786
-107.67487321545653,0.027427682124311254
-106.24543551650885,0.032949093702901416
-105.17349909450733,0.026898269754854834
-104.10168423713483,0.027791950642034487
-102.67278682542756,0.031762184127963486
-101.60125553844445,0.026602278358626167
-100.5298457471839,0.03378078856163579
-99.10148831645702,0.03358890480138528
-98.0303619348556,0.03293030125692954
-96.96292679495396,0.028409528156852278
-95.53153922434295,0.03161424888493525
-94.46081751866267,0.03331764523790998
-93.39021717104107,0.029243033785357052
-91.96293878441382,0.03416403651946606
-90.89618904807443,0.037157998415759036
-89.46572051531814,0.03375582222627407
-88.39568623257544,0.029808471257595705
-86.96916244945949,0.028675695188017703
-85.89941103081622,0.028895871799967797
-84.82621557386483,0.036174306961504595
-83.40379565836896,0.039502971442097974
-82.33444813676684,0.04001167638247245
-80.90883985364819,0.029736471379901333
-79.8397749238915,0.019672377946996434
-78.7743940157149,0.020370040333101955
-77.34576090530278,0.023407168931300647
-76.27709948390074,0.025332787078546797
-74.8524058197459,0.02848420567188239
-73.78402671828495,0.023577694517269394
-72.3597094061287,0.024081433126736006
-71.29517263485712,0.030042489730338417
-70.22719625054887,0.03401939335198636
-68.79985660635792,0.036136976744068135
-67.732162673434,0.03747528883663213
-66.30875873837199,0.029642792311054225
-65.24134674210742,0.026998508617386223
-64.17405554165597,0.03345164013274802
-62.751188476879065,0.0333285189699066
-61.328536075174085,0.028325033086435643
-60.261687617315445,0.02789140590599379
-58.83941075910597,0.02680944839161214
-57.77639892553545,0.019418341586188232
-56.35094243972526,0.017039482497329277
-55.28821115830961,0.0228140022468842
-54.21849231311386,0.025949389776232356
-52.79712687028114,0.033386150430924744
-51.731243440509786,0.03727536371458103
-50.66548054717787,0.02968067696545356
-49.244650821855004,0.022066548890743148
-48.18272050632476,0.019868315642736466
-47.11735885195515,0.027917002581897957
-45.69351353724276,0.03182566495054615
-44.62843329767075,0.03287689565178149
-43.56347345832445,0.029473582526339907
-42.14726339100516,0.022374372935508337
-41.079035274934306,0.02438140472691975
-40.0180249512293,0.02748788793574351
-38.59525223349233,0.024812148492562285
-37.5309742766018,0.026418516340615202
-36.11567093385315,0.025701592150097156
-35.05167316099833,0.03044288862278498
-33.62965054016706,0.03930704838649096
-32.5694791652835,0.03814874362405987
-31.147831370482365,0.03383122513434911
-30.087939424091942,0.0292470979489056
-29.024622610050212,0.030821715765431634
-27.60351002397809,0.035593103858857916
-26.540473814959626,0.040192465270487476
-25.126821670865777,0.04642810954139863
-24.060522834672593,0.05187493850538005
-22.643701354235898,0.062446785038126014
-21.581225222348593,0.07035093448876673
-20.518869049400443,0.09194022370456348
-19.106121174820682,0.09287914858049603
-18.040504372069268,0.08822779140148865
-16.624589069049748,0.09772185417950201
-15.562792435953659,0.11601225642685267
-14.501115646741196,0.12788031327059696
-13.085732983214083,0.14432683961865156
-11.67056329133033,0.15849524411844115
-10.609325756143814,0.16684238543800844
-9.198065376351225,0.18825233719546058
-8.133570497174361,0.1957392584106519
-7.0727320473153465,0.21390150109455255
-5.658466948867342,0.24051149895439217
-4.59790772481259,0.24791520292370714
-3.5374681352034165,0.27435732289897824
-2.1237347454467015,0.3040775666511955
-1.067107893964591,0.31947423159657057
0.34978714787917836,0.3278919452040374
1.4096687109385782,0.3414458589676562
2.8191260032802257,0.3514342578404734
3.882260927085034,0.35272286003416764
5.294878704164099,0.3510898639184407
6.354202681027859,0.3458911549771452
7.409876748900581,0.3387612117462456
8.821964276556718,0.33107091530496646
9.884420199766627,0.31859338922578384
11.296135828730366,0.3041933083284326
12.351254701184368,0.2909173127243086
13.766127735371885,0.2787977196431392
14.824496873344856,0.2713861772372285
16.235470205562606,0.25438173485726834
17.29003432045836,0.22522847114361466
18.351532761457346,0.20744876799950657
19.76197624009438,0.17713529923698143
20.819669814734866,0.15055649768342055
22.229742573426815,0.13508772669203511
23.287158162923713,0.12510459045551883
24.34445464947533,0.11234248050768379
25.750474467135994,0.09541813407928477
26.811016719664565,0.08617429897363478
27.86791634170065,0.07932381289550211
29.27340843342978,0.06831080352809402
30.33355265537525,0.06710425128995963
31.39005563630379,0.061175140301820946
32.798541249555164,0.05131505411056526
33.85476671454487,0.04433758662517558
34.9108732776058,0.04352091403304422
36.318830437827145,0.04304794354801719
37.72657630010429,0.04535144639870974
38.782247061152255,0.04365451793017772
40.186105089277554,0.03820976639151171
41.245016839397145,0.03414687247578074
42.30029165083358,0.032383035454986116
43.70714002730326,0.028172153781532476
44.76213780653935,0.02758343221263641
45.817016891089196,0.027553247142323323
47.21982219649972,0.02890554476799947
48.27793994374317,0.029665844463737386
49.3324235239579,0.03564032386434591
50.738217133148744,0.03338969833489851
51.78891016674881,0.03256110647416401
52.846512290922846,0.03397002225000666
54.25177896124789,0.042124880950497594
55.30559069437944,0.040477183979273454
56.35928393291967,0.03652465846286393
57.76402396058837,0.04204399521885037
58.81744078944733,0.04234738300655394
59.870739190314815,0.037866145018437526
61.27495287132519,0.03635317486869194
62.32797501785046,0.03620125798489033
63.73182043219964,0.03987883045355949
64.7845664330577,0.040248739785106215
65.83719411902014,0.03865140757307426
67.2405136893905,0.03657545698414081
68.2928653848242,0.03517545828300434
69.69581704018078,0.036420672670491934
70.74789285361712,0.03551908095600312
71.79985046511814,0.03160137562536766
73.20227677853842,0.035079105377577795
74.2539586629854,0.03458440332213891
75.65601741260024,0.0339577971050941
76.70742367838086,0.03365302834118552
77.75871185504283,0.029702135336910622
79.16024576412421,0.03236632267816945
80.21125847686801,0.03289238347369127
81.26215316678939,0.03674946703999768
82.66666479054392,0.03824745351197693
83.71378191061494,0.03780459125710791
84.7642833346694,0.03755757785040835
86.1647684463954,0.03512953055196755
87.21499471567837,0.035108571775848176
88.61161299195282,0.031946744819314324
89.66506424904462,0.03028675290935948
90.71489762757024,0.02959193862359577
92.11099346162878,0.028958058238342715
93.16405067304937,0.027035206047386143
94.21349138124678,0.023548499027304385
95.61256248294501,0.020407847125177205
96.66172845298375,0.018114530964087803
98.06043330906037,0.01932046245963255
99.10932464881044,0.024362832205855476
100.50766340305775,0.024707969751473338
101.55278502633797,0.021379299235318398
102.60477941812374,0.022322904336221996
103.99910113968475,0.022660571129175806
105.05082024828887,0.0238054382320059
106.09892752397636,0.025591212375047856
107.4962210646579,0.028738004248873603
108.54405412561515,0.02818290164062808
109.58827750880845,0.03288932278902744
110.98854107221764,0.038807503689848775
112.03598258448092,0.04014707260069907
113.08330667493028,0.04761863533678447
114.47955617350483,0.04930303085094073
115.5231163841756,0.05010783432931222
116.57353918347957,0.044032759809735214
117.96926709974878,0.043498249811983365
119.01243750400594,0.03696484889453078
120.05897967766325,0.037963654629132454
121.4576745816367,0.03508754098341582
122.50394276372238,0.033469364886270045
123.8987846605735,0.03727992217844988
124.94129289499998,0.03843036077191587
125.99065685942111,0.03682430970496363
127.38497796243122,0.03557265177903081
128.43058213234755,0.035037568061649656
129.47606918926869,0.03864815489374959
130.86986979005567,0.04093501889105608
131.91508365981815,0.04415273219668725
132.96018048214984,0.047898387592872585
134.3534608721174,0.04320075802318348
135.74653325929953,0.03989439477858699
136.79468310634795,0.04098416757655092
137.83575193673684,0.03740499648060565
139.2283045206972,0.03640482794821567
140.27258256123525,0.03264847254662975
141.31674371150032,0.03183381939166117
142.70877678311686,0.03543845472452027
143.74918583151108,0.03532873225574134
144.79643692344132,0.04343349171269354
146.18795077338046,0.0480328590093629
147.2314499159817,0.05086100059774404
148.62607809992042,0.047714131412832095
149.66582721776533,0.04497910059553967
150.70893723814683,0.044393431655205984
152.09956907769518,0.035112335773261255
153.1424068420119,0.03432977286503468
154.18512795778938,0.03267857461805606
155.57524135936774,0.02757046652181195
156.61769037131324,0.02628552806337728
157.66002279993967,0.03078757317279017
159.04961805340955,0.03234011813091923
160.09167853032568,0.03400684732319587
161.48091125247439,0.03458802438286317
162.52269988410285,0.04044450624144285
163.5643720431689,0.04231561979101097
164.95308710947754,0.039667842171861485
165.99101643367396,0.0345854794092809
167.03577163341228,0.03600430622987775
168.42049909687046,0.03874495392476654
169.46498184985177,0.0338513625994547
170.50587802409945,0.03245905254347496
171.89355864635803,0.029975958746602766
172.9341834307642,0.028373713937474725
174.32150227064952,0.02841238234194714
175.3583881194189,0.02744696535278441
176.4020930400444,0.030364787076036168
177.78889529335152,0.030861509049000646
178.82886142984935,0.02829106381021124
180.21530224420965,0.033243161977075344
181.25499735448844,0.03525158221357557
182.64107687118704,0.029190564694020735
184.02694999548734,0.03580723253625853
185.06968345877172,0.0367533015576552
186.10537279700995,0.036769032807239
187.49073014194224,0.038692372264289586
188.5296128089443,0.040543712894215336
189.56837949036154,0.04021229359313352
190.95322134380862,0.03944590060705545
191.99171746772907,0.03264925172544157
193.03009767078885,0.03242658585429213
194.41442432041936,0.04026480253820261
195.45253411694938,0.0388662315814785
196.4905280572995,0.03896169324079289
197.87433979056527,0.040288272032375554
198.91206347524425,0.03947263196529579
199.9496713683699,0.042351414555496306
201.332968472514,0.042397750983102285
202.3703062607133,0.03986673424347864
203.40752832193976,0.03803729346077832
204.79031108398848,0.03643849225910429
205.8272631909222,0.037054899524487754
206.8640996354175,0.03928590319032016
208.2498237563604,0.04148195570540214
209.28293498290532,0.04213215857421622
210.3193860256722,0.039148317562897994
211.7011409637524,0.037405619804327196
212.73732235316038,0.03904131274242511
213.77338820904706,0.042770086363497134
215.15117681720977,0.04718310582048198
216.1904260176566,0.04747276679772614
217.22610690135133,0.044268384333749904
218.60683516101477,0.042030039089670186
219.64224669182911,0.04544097077508048
221.0226158843627,0.05084618089312044
222.05775816735854,0.04248417274018655
223.4412182015237,0.042284766522038705
224.47264157300185,0.047093924222414124
225.85229305135795,0.04763595612452308
226.8868971536884,0.0456630094107254
227.92138598619718,0.041555194674470934
229.30052515422022,0.038484886672383124
230.33819230586846,0.03565586175272661
231.71352581927465,0.039220388177424556
233.09210177544804,0.04135091093064263
234.1258993933935,0.04957953871260338
235.1595818762673,0.05046005197848171
236.53764612100196,0.05215505111967491
237.57450455075647,0.048441479633109116
238.60435886834173,0.04528287228616478
239.98535531227284,0.04151518478145008
241.02182858395167,0.0394238378193792
242.04785750749082,0.03839454803390611
243.42489918371555,0.041467103646136635
244.4575463159132,0.046411326264539574
245.83423036203675,0.03820645592699331
246.86660932390416,0.036008542350377364
247.89887338760894,0.03514788153712897
249.27848695280016,0.03699125265854353
250.30704281778563,0.03774437173623716
251.3389240261111,0.04124581159921072
252.71458703928297,0.04213965178052051
253.7462003755558,0.04400908996505049
254.78113707810965,0.04330250279886168
256.1528518640573,0.03763864536856233
257.18408270688457,0.035605205927084306
258.5588787348754,0.03617346381199572
259.58984195884375,0.034776265713876695
260.62069052090794,0.032328321191200625
261.99497694042196,0.036106527307215704
263.02555803241773,0.03431728608865023
264.39948789457276,0.034589564985809076
265.4298016205835,0.0342753099811161
266.4634345987292,0.03349987957096464
267.83342152818506,0.03796995664786511
268.86335348324087,0.04369751491395771
270.2364179978697,0.053312350167438356
271.26608283949724,0.05899484458973363
272.299064879049,0.06541618104310518
273.6681891042636,0.059348675231499705
274.6974725355013,0.056855103137281475
275.73007195719254,0.05297541922658436
277.0986890899272,0.04645264731565784
278.12759132266325,0.04634413343094597
279.5027121161073,0.04827227135988447
280.527918660966,0.050408236882255875
281.899254931349,0.058585091884338136
282.9276238418434,0.06463428928934664
284.29860470230017,0.0665564760466553
285.33013392422225,0.06819828558521743
286.35469532703297,0.0713298091205176
287.7251686986471,0.08958432722226715
288.7528905608466,0.09452676467280446
289.7804983014514,0.10311398533304655
291.1504644659529,0.11810461013095212
292.17780599673875,0.12595241976508698
293.5508410579395,0.14455605177335315
294.57449270818177,0.1771516500715245
295.6014541186374,0.1914937338902003
296.97398118450775,0.21749566014743546
297.9972541287669,0.2433404376640323
299.3660041444125,0.28090750310226725
300.3924337407354,0.29530584883299027
301.4221702924704,0.32347017042225495
302.79041355121825,0.33564362825705113
304.15845438839864,0.36466454397887155
305.18093273384454,0.45437491870518315
309.625176592759,0.48094411772613294
310.650467977511,0.4927195835503037
311.6790627139985,0.5105040128325978
313.0457889052716,0.5167535858947753
314.07070092798165,0.5161699009952353
315.0920834909919,0.5185911063106449
316.46172035955766,0.5193546825812617
317.48283868727634,0.5177352901578529
318.8521212488341,0.507655015517486
319.8798035201634,0.5073941262039167
321.2384903015787,0.504807320784392
322.2659071563049,0.4920045763314771
323.6310683603268,0.47299004989020366
324.654806870323,0.46152046195612867
325.6784319215434,0.4455604867414274
327.0396774734068,0.44086212140025133
328.0698602634247,0.433834696703883
329.43075337793255,0.4278098930500533
330.4538492041899,0.40819684876109086
331.8143910231426,0.3972814330657681
332.8406320181988,0.39118755943798483
334.2042309214518,0.3804504356166091
335.22338956450983,0.37425800636996637
336.59004442988686,0.3694189809104761
337.61234718790996,0.36813712770171814
338.63112961534034,0.3638860030203307
339.9972800217617,0.35808306716054433
341.0157992221868,0.35869589337565666
342.041017725359,0.3480552957592533
343.399852748935,0.3507210571610602
344.42480641106107,0.3477001767933073
345.44283703191815,0.3497052673147263
346.80797935799075,0.3514950345017668
347.82915076004576,0.3458288586326733
348.8468057896455,0.3433862162883343
353.273489705561,0.34838169526494345
354.2939455532723,0.35344600217807887
355.31428848747197,0.35648852621747695
356.6745701222193,0.3513405031331272
357.6946496644333,0.3413380197904381
359.05797975277085,0.34417809766553303
360.0743964300571,0.34549991468806485
361.4339759580939,0.3364506805253882
362.45013069931275,0.34621954505228647
363.4729693226035,0.34523770590578845
364.8286502325854,0.341399117065377
365.85122493642075,0.33844668434429975
366.87028949287503,0.33969472700464365
368.22547075997886,0.3562319446216494
369.24766861317477,0.359136125100626
370.2663576333814,0.35649518662852697
371.62443447627555,0.359429928455552
372.6462553105747,0.3535995136005682
373.997193252513,0.3512897426329025
375.01535724576036,0.34836938280735313
376.03680202237297,0.33830058686999503
377.39063563258134,0.3428601491388499
378.41181702899087,0.3447822675032953
379.4294931375896,0.3395812812278768
380.78621969288014,0.3487408563925972
381.8002422489479,0.3488208659445637
383.1566195579419,0.3496397558340022
384.17377142235904,0.34604187789335106
385.1942008649688,0.34345972103331046
386.54668882754686,0.3446637672364097
387.5668552825377,0.3489259378445112
388.5835199895268,0.35651632541677936
389.93889827002687,0.35541427278450854
390.9553010079047,0.35284990881073636
392.31033006375714,0.34548987613605636
393.3230839839124,0.34392292751366554
394.68115089992466,0.3507884420172487
395.6936439258792,0.35165135059822095
396.70941124826027,0.35258761267842287
398.0635932471503,0.36400599204940437
399.082483778715,0.3647016626316172
400.097877012196,0.35696228601497365
401.4515603222301,0.35062375763223463
402.4666920778518,0.35741459441247414
403.4783285894461,0.36219186330376424
404.83151448160174,0.3623581597368784
405.84965558782375,0.3628446061821957
407.2024926046779,0.3464828889220489
408.2136082917212,0.3436126091063072
409.2313749952994,0.3452879128246888
410.58371456331037,0.3452443948519484
411.5944584790252,0.3477168875587219
412.60847113130995,0.3500724681684521
413.96369337992775,0.35151368083654955
414.97406572932044,0.3638729540116255
415.991084246902,0.3697088017084344
417.3424297399897,0.3638439445128933
418.3524307279122,0.3659290562076945
419.7068062971926,0.36890654860143207
420.71992432844644,0.37595616773203305
421.7329306618585,0.38011195224948163
423.08343205280073,0.39163665010180315
424.0928021959382,0.3972175495651379
425.10881197040356,0.4344985876576516
429.4956036774767,0.45063340991986484
430.5076427362425,0.4606225249454318
431.8568546764093,0.47132189036764455
432.8652611407138,0.49708939355444337
434.2141267319762,0.5264652806225314
435.2256458957561,0.5418953970799049
436.237053626001,0.5711425253943898
437.585423957091,0.6173069334691381
438.5999420537383,0.6578794234302918
439.6109781006107,0.6735568123871987
440.9588529494024,0.7084809058136873
441.9662601303008,0.7488167169365088
443.3171577194811,0.797816711143034
444.32767427304276,0.8167434314812511
445.67485659756034,0.8697330360101304
446.68511355460026,0.8994068942461031
447.6952592866082,0.9193103134488111
449.03858080414176,0.955868425144549
450.05183355600485,0.9884348641793346
451.05824293812225,0.9950146684284146
452.40780260013224,0.998402909857734
453.4139535356625,1.0
454.4267231047663,0.9952132452139199
455.76905924060185,0.9827916082583597
456.77820514353556,0.9544639947020209
457.7906032687373,0.9310763636355889
459.1358098907512,0.9071020035581467
460.14122295578,0.8772053363111166
461.15324984138937,0.8397113312553658
462.49796321686813,0.8234810747231067
463.50972998525407,0.7924773365431979
464.51130270312365,0.7655188499008281
465.85552359614513,0.7261523427185891
466.86691984291366,0.7002127785016574
468.2074358786727,0.6573226713267144
469.21857262194396,0.6269290216025419
470.5621033120142,0.5992417655507768
471.5662638586903,0.584928376165555
472.5770300559009,0.5528579312487609
473.9200684208343,0.527086362518276
474.92721800653965,0.5139388253383241
476.26991190487644,0.4888733578266593
477.27680319033215,0.4633896536117512
478.2802280545271,0.4503863333332001
479.62243057929334,0.4323805501027171
480.96443643350705,0.4219578508599371
481.9741661846936,0.4033201775314321
483.3158274780068,0.38887392917368935
484.32194445863433,0.3812029260803131
485.32459772601015,0.3645322931685756
486.66576821243814,0.3309071185474001
491.02656691154016,0.3143710400676823
492.0284861519383,0.3035336947409026
493.03699642274887,0.29640731098426515
494.3770374560974,0.2877462951829327
495.3819394753361,0.27613782014768484
496.72163719451635,0.26130901078599633
497.7229331455576,0.25608591644372247
498.7308160611962,0.2504500138109034
500.0700235603835,0.24798383623274026
501.07430054911254,0.2427866181904899
502.0784672988751,0.238166347973083
503.4171848470871,0.22996536163051146
504.42109444317094,0.2245321385207948
505.75612349300735,0.2137889885635186
506.75977640132936,0.20869580076332017
508.09780895920375,0.2042642005603622
509.10120491119346,0.2015300568966076
510.44223890621737,0.19246712835577565
511.4453776336702,0.18811632786939253
512.4450630633842,0.18727089646539094
513.7822639600755,0.1826450218096788
514.7850362859281,0.1797780138785748
515.7910406443367,0.17645476345897118
517.1277522020035,0.1665072465670898
518.1301575940316,0.16548743765198617
519.4665271161542,0.1563763677351357
520.468676030753,0.1526654643408579
521.4707150565855,0.15139158142768594
522.8032567248782,0.1551765079889978
523.8083788731778,0.1486056157478518
524.8100517336331,0.14116587726714752
526.1454447343963,0.13294896817462612
527.1468613984962,0.12520467575196342
528.148168294244,0.12425496895321184
529.4864104540533,0.12492837102290433
530.484124275436,0.1206445107935637
531.4850654069994,0.12257484038461415
532.8161471556043,0.1250466106654898
533.8168327369968,0.12588699052453572
534.8207437399902,0.12550077264664894
536.1546739644124,0.12441553766249942
537.1516595393877,0.1242985886649865
538.1552039608248,0.12344309332959272
539.4886471272022,0.11123445284523745
540.4886016959349,0.10619923847311738
541.8217040803876,0.10709571569225362
542.8214031116645,0.10825779433533045
544.154164844817,0.10704440748528336
545.1536084365767,0.10258267679740905
546.1529425842313,0.10600868370200323
547.4852178991187,0.11149415701738195
548.4809666659718,0.11285999983001485
549.8129021325952,0.10644389211561481
550.8150553737217,0.10813236635650027
552.1466501502822,0.1125139297502027
553.4780505830937,0.11678463416095292
554.473145500701,0.11527663996997561
555.4747869308455,0.11824205082607968
556.8023746456419,0.11938056440836539
557.8037603173132,0.11692776902663952
558.8017097275392,0.11429744976583833
560.1321390795069,0.11111572779996404
561.1298337204697,0.10871435122395329
562.1274192044672,0.11564878497969228
563.4573634143705,0.11587132891798743
564.4546942684436,0.10826468501231884
565.7842990367782,0.10780921849434769
566.7780519518292,0.10131752664423911
567.7783426245229,0.10087443928831948
569.1074627017074,0.10605178315130459
570.1041755745446,0.10556750610030749
571.1007794514993,0.10742722010494966
572.4294151025208,0.10679309684685505
573.4257647252596,0.10984221003012558
574.4220054116928,0.10037973109209256
575.7468367640142,0.10301484443434887
576.7461434725202,0.1041987202156912
577.742021166933,0.10478541771348879
579.0696887598041,0.10473593143986294
580.0653124778279,0.10335406181299328
581.0608273785724,0.10241213868223957
582.3880113390737,0.10558661703091231
583.3832724021909,0.10576587063650286
584.3784247074784,0.10580705451847416
585.7051252998219,0.10253465173818341
586.7000239061432,0.10102401028214239
588.0263862978767,0.10249464359378714
589.0210313022436,0.10690483565740162
590.0155676497336,0.1117853253664078
591.3414471220307,0.11418366868920043
592.3357300060542,0.11212753984872187
593.6612715916502,0.12016186266889459
594.6553011090859,0.12584005937009507
595.6492220704864,0.12843506113367484
596.9742811848092,0.12857100729650378
597.9679489179391,0.12285283551094894
599.2926704590851,0.1223592809257197
600.2827738588704,0.12447533475515817
601.6104691576634,0.12370168829898769
602.6036307244957,0.11792647251106854
603.9276775061801,0.12130537833257703
604.920586134877,0.12263972088716621
606.2442957301411,0.12207484338060363
607.2369515173294,0.11672733628494761
608.226190661841,0.11878284918218059
609.5527270971935,0.12680169193487037
610.5450218497205,0.13186580599651768
611.8679130997178,0.12532865501242624
612.8599552451597,0.12517624053978585
614.1825097500205,0.12448661247342217
615.1742993848279,0.12828528163782651
616.1659808303017,0.1274895116108601
617.4880544936809,0.12253845512859231
618.4794835662166,0.12463588505922601
619.7979166931451,0.12782100860107443
620.7890938493923,0.12868026280437123
621.7834662993382,0.13005734480280795
623.1047231338024,0.12239713093610273
624.0955397015646,0.11332633047985004
625.0895504203332,0.1094072934110625
626.4037232372506,0.10940840608816621
627.3974814755527,0.10885226902043475
628.7212230992765,0.10915557186670373
629.7081268682942,0.108496436425179
631.0282318206531,0.10718533266876086
632.0181846416405,0.11479276025786614
633.0080295736967,0.11721108315786977
634.3276550197121,0.11657876699953969
635.3205467433959,0.11581852125950254
636.6365382265269,0.11391727836890293
637.6258799100634,0.11346103680828074
638.6151138045617,0.1056831766490221
639.9339246891651,0.11015194967205393
640.9229071444023,0.11135837280500872
641.9117818693001,0.10561192165209321
643.230113952397,0.10486502252428835
644.2187373749522,0.10883044875152542
645.5367344521194,0.11166024174296484
646.525106668113,0.10820204426383655
647.8427688670315,0.10965602190942583
648.8308899721986,0.10280452398075522
650.1515104994504,0.09076807616964701
651.136087510506,0.09213392269974979
652.120557688722,0.09376812447369942
653.4406995062261,0.0949104698316303
654.4282111690817,0.09470353300797203
655.4156153418272,0.09422557708939507
656.7319870623146,0.08911184438897891
657.7191404930359,0.08854016248088253
659.0384678088567,0.10108225800604513
660.0220807387021,0.10225070673927653
661.0088761321853,0.09948430553929724
662.3244363015724,0.09482181309133356
663.3109811848772,0.0912673685418562
664.297418735872,0.09172571193716117
665.6125018727831,0.09573886887351762
666.5986890498432,0.09268287007022406
667.9134384183816,0.10119006649112383
668.8993753168162,0.10433120467742628
670.213791044037,0.10467505337549171
671.1961923147917,0.11494612827911382
672.510275004037,0.10854933954201759
673.5022812084832,0.10548283684359502
674.4843260743394,0.1072690717413926
675.7979320583289,0.11116760843888178
676.7830115815386,0.1178091457821971
677.7679840114887,0.11858180851037066
679.0811140254148,0.12094728311290019
680.0658366389918,0.1245847975789558
681.3786336277848,0.12487405419692421
682.3631065200136,0.12567679999381817
683.6755706103407,0.12878818849835857
684.6597938762084,0.13670437132997468
685.9719251946775,0.14664267167692455
686.9558989291139,0.1484584282645745
687.936486372059,0.14912543298737946
689.2514219001569,0.14774051043665276
690.2350393257008,0.1486007513885872
691.5496410818536,0.15406361728742118
692.5297311351176,0.14911475839901253
693.8374452401873,0.1508109576903423
694.8205645142708,0.1516747651453074
695.8068535443972,0.14582824549821732
697.1173703412722,0.14398581086082649
698.1001334146938,0.14413249729327932
699.0827897723697,0.1446372020018974
700.3928322770407,0.14562385942681677
701.3752396989,0.14207237269780812
702.357540462937,0.1416004651003002
703.6671089328373,0.13529903057510523
704.6491608961628,0.1291641970147665
705.9583976947977,0.1235550752697501
706.9402009519163,0.12102174598164159
707.9186255042536,0.12402240621336287
709.2306608506616,0.12586260077485273
710.2121089770685,0.12499433587278146
711.1934506018351,0.12141974143969746
712.5017404622689,0.11750111991891388
713.4828336506107,0.11728114152294389
714.7907923253714,0.11552956390829126
715.7716371716219,0.11194542508382066
717.0792647864473,0.11018516066327828
718.0565929062452,0.1088830456567867
719.0403516202484,0.11164137237379093
720.347506510312,0.11289873110377366
721.3277486324689,0.11026675686094724
722.6345727677052,0.10872383267279617
723.6145668708199,0.10403678525275421
724.5944547088726,0.09554379956435723
725.8975409108089,0.09313892345715934
726.8804465083929,0.09738935715228364
727.8599802543807,0.10755923223846676
729.165860067265,0.10809391197900357
730.1451460629897,0.10940073791156991
731.1243259088055,0.11596749827879536
732.4329972279901,0.11360390288071
733.4086661741078,0.11438077289801052
734.3842297339312,0.12242835035523739
735.6891667190525,0.11967744799284892
736.671007480776,0.11986479801364822
737.9723527997645,0.12570857061211735
738.9539453487719,0.13008906718835062
739.9289100467118,0.1301544354474414
741.2363061343945,0.13585347698892453
742.2142841531582,0.14782797146217078
743.1888968369528,0.153596735935017
744.4958209148887,0.16206247351865255
745.4734458761848,0.16005908396373908
746.4509649575223,0.15581888332037788
747.7541590602019,0.1572578489585595
748.7314311551806,0.16262665119683606
750.0342960051247,0.16433276496962945
751.0113212073384,0.17235698477828407
751.9882406270117,0.17403960655296377
753.2906353323104,0.1757071688113627
754.2673079928466,0.17805619709209675
755.5661188182266,0.181987530470893
756.5457997431768,0.18741848957599347
757.5221200528117,0.19590968825572153
758.8237160960435,0.1978890551890839
759.8030432761011,0.1958274984900942
761.1010572693795,0.19118744823437
762.076884608002,0.18431504061729118
763.3778234810145,0.18536376518162456
764.3534044741285,0.1863629757888234
765.6540149486563,0.19556322022136038
766.6293496895385,0.20262447076790158
767.6045789222917,0.2016979235648258
768.9047204717878,0.20258889501125413
769.8797035854708,0.1989747803023723
770.854581248073,0.19916701774886192
772.1542541260943,0.1971603696694303
773.1288858026986,0.19492962565425984
774.428230761458,0.20056476016279967
775.3993687675511,0.19970507872624396
776.3768969746508,0.20218670475247907
777.6757736925588,0.2079048804306385
778.6465617547472,0.21044289512243824
779.9451113225751,0.20715719926197904
780.9221464644237,0.2097770711306965
782.2171227495121,0.21362157472386822
783.1939114986161,0.20896983708158628
784.491805734232,0.22241933340707276
785.465103681396,0.22398207310132393
786.4382964507441,0.21547832379352708
787.7357232294086,0.21462289582590494
788.7086706501531,0.21045811121610636
789.6815129498995,0.20783992517135796
790.9817146889307,0.1971065030357828
791.9510696077607,0.19574072604304463
792.9235616271852,0.18675011152249124
794.2200542492565,0.18981841969298174
795.1955418325203,0.18745715533516374
796.4917072714785,0.18289085540964942
797.4604690353239,0.17690364970976344
798.7563083479491,0.17223658109158255
799.7280653942101,0.1763067165576492
801.0203396877221,0.1796878958678424
801.9950904776313,0.17313297538410372
802.9664978294868,0.16790876463342502
804.2615445014358,0.16450295702924897
805.2327071795114,0.1608303018783163
806.5274276813743,0.15468225394592952
807.4983457780983,0.14965805792340778
808.7927402330839,0.14718666264665548
809.7634138408356,0.14454293851010352
810.7339826958682,0.14154086542510047
812.0279115832114,0.13657249209686084
812.9982360811678,0.13513538468459615
814.2918392205944,0.1341086428398391
815.2619194537453,0.13537309286997473
816.2318950302131,0.13620832446638306
817.5250330288233,0.13707894997092393
818.4947644722189,0.138376404376052
819.7875770215126,0.13408308750924386
820.757064423988,0.13045430021029586
821.7264472657051,0.13164041086672676
823.0187951004851,0.12858065551199857
823.987934032858,0.1324339429285688
825.2799567165504,0.13254716133368827
826.2456223547802,0.13146364030594118
827.5405494869261,0.12911250699279622
828.5092008767026,0.12569036325232955
829.8005736262438,0.12801606497781254
830.7689813826706,0.1266310857063261
831.7372847529443,0.12312929984771323
833.0281935640114,0.12280807139991677
833.996253432216,0.12377427872773504
834.9642089705079,0.1211897723778454
836.2546540930716,0.11777763122801899
837.2223662604802,0.11933255603035584
838.1899741541782,0.11743569479769103
839.4799558380226,0.11580046516932728
840.4473204919283,0.11393844888176514
841.7369779171947,0.11080967647806562
842.7073229871554,0.10459200147531009
843.9934327119585,0.09882446583408269
844.9603111613575,0.09956178827344611
845.9270854717718,0.0981246381925591
847.215955920749,0.09512574114478714
848.1824873056025,0.09472614805331142
849.4710339148806,0.09114174350553005
850.4373224657287,0.08692542337776847
851.728765682814,0.08458121068769867
852.691591165684,0.08975123343310001
853.9827099781764,0.09519990674618671
854.9452936189045,0.09036350643622859
856.2328694410465,0.08389770727660287
857.1984300387152,0.08445129573300525
858.1671047253672,0.08091239421822492
859.451000638335,0.0734921874761669
860.416214880724,0.07696392220664636
861.3813252528695,0.08021404241618586
862.6679775354382,0.08382857327466026
863.632845608876,0.07788626515341246
864.9191748873349,0.0706608547991138
865.8838007532952,0.06837422116728997
867.1730219340913,0.06969932658068803
868.1341908989368,0.07368840195472526
869.4198745339503,0.07733998871232727
870.3840162584917,0.08041944555424257
871.351267572564,0.08676548167114488
872.6332770445582,0.08984354505400695
873.5970731769141,0.09473472309015478
874.8819734696184,0.09827167348236009
876.1666895505297,0.10039738141250404
877.1301057460511,0.09965770858354439
878.0934183614289,0.09878776881897876
879.3808844947584,0.1028596714741725
880.340745079453,0.09933911628843513
881.6246787020241,0.0982466753411616
882.5875081641899,0.10554454985571883
883.5502341408114,0.10589584012427586
884.8337078276418,0.10040825245473936
885.7994005118287,0.10547652336158174
887.0825519310341,0.10463110578784902
888.0447948510082,0.10583889452451353
889.0037274199465,0.10407335815192593
890.2864197830081,0.10022519207610371
891.2483184756067,0.09895758601720657
892.5306893244717,0.10410510622010218
893.4955522793558,0.10570645765915464
894.4571062406714,0.10297741580261306
895.7390175342288,0.09089723698729957
896.6971263296524,0.09305367516924844
897.9787168614223,0.0904714468244554
898.9397893358823,0.09025200807054057
899.9039616662801,0.08867433697970122
901.1850930620955,0.08522155312454048
902.142618993353,0.08390105073889052
903.1032443773852,0.0830625752916105
904.3871192543888,0.08438487278949106
905.3475036829666,0.08005029370128527
906.3045842533699,0.07631107354172537
907.5847994913482,0.06402584066382411
908.544840689252,0.07143384382530046
909.8247353438892,0.06633170982738457
910.784536149438,0.06621916207193736
912.0673090471917,0.06991113971528588
913.0236708446155,0.06956575639954217
913.9863264087786,0.06705841410205556
915.2622449853525,0.06350309853876968
916.2214623566781,0.06389465407848802
917.1837737004073,0.06720876270990457
918.4592360704405,0.064575437273712
919.4213065697078,0.06162550430879354
920.6996453597552,0.061976669520961085
921.6550842096398,0.06175949374004555
922.616810802206,0.054774856814747475
923.8914981824555,0.0609526846341206
924.849790015763,0.06669097915367359
925.8111728859914,0.07053912220515762
927.0854047198059,0.06821059313831712
928.0465470940321,0.06312142246926503
929.0043934333047,0.06583682131485596
930.2813621590795,0.06690301184825195
931.2357770778073,0.06014637123567166
932.5156182908942,0.05972558861271461
933.4697945291977,0.05827116183817238
934.7461251012635,0.05852617343733556
935.7032533465409,0.06316167413942675
936.9792647932301,0.05825981789533313
937.9393431977107,0.05973646610413708
938.8961292727886,0.06427569674917723
940.1716845780896,0.06510634463363434
941.1282314823179,0.06629997585426543
942.4034679529414,0.07061546821519715
943.3565882534099,0.06429221664310023
944.3159811631062,0.06613791127603094
945.5875756369425,0.07087737236199966
946.5467287969012,0.07309274123500828
947.49940680632,0.07115356038958769
948.7737334340366,0.0685331380480819
949.7293590027988,0.06365603137152188
950.6848822452322,0.0675149382160188
951.9619385409839,0.066139753682441
952.9172227449596,0.06584302561807817
954.1907759307645,0.06833182845829831
955.142638211289,0.0694451681397754
956.1007648896001,0.06899796830669722
957.3706811851694,0.06826799091586423
958.3285685882034,0.06834829181201237
959.2799894529518,0.06935065559332022
960.5558159816883,0.07483732452611298
961.5069992881914,0.0771110500698784
962.7825072784082,0.07384334032323671
963.7334531156251,0.07287246688820373
965.0054628895555,0.06847109505014246
965.9593511434522,0.06987108481167861
966.9131373499283,0.07107889278558281
968.1878722430721,0.06806242678038106
969.1414200625715,0.0685475695196864
970.091687905924,0.06891186449270702
971.3659683643683,0.06699124365250447
972.3159990811589,0.07082426947421946
973.2691053898005,0.06839291123065681
974.5429316565095,0.06730135930165446
975.4957998330135,0.0664566257373293
976.7629566467334,0.07079304390632248
977.7155874593544,0.07067218998076016
978.9856034523551,0.07110131129543613
979.9411711241331,0.0685170243019062
981.207695883215,0.06676482541461173
982.1598515555638,0.07247270383267033
983.1150788012334,0.07270482502834717
984.3843252728624,0.07764166797210836
985.3361414378286,0.0707537960984857
986.6050714371102,0.06685167189890101
987.5534785315921,0.06265701253751098
988.8220926287298,0.07207011736480327
989.7734346015153,0.07309032195974988
990.7246749352015,0.07854056093081244
991.99600748256,0.08574756980529104
992.9470103830367,0.08409830312606398
994.2148562324044,0.07780919393573764
995.1624530761159,0.0769977734279251
996.1131177624544,0.07246518235511787
997.3836810052195,0.07555026885892636
998.3341084738282,0.07752590750721064
999.6011872240973,0.07939569711045279
1000.548210768244,0.08247910102135032
1001.5014671251727,0.07941776291756028
1002.7680949658468,0.07184158380142798
1003.7179475246987,0.06852152969231351
1004.9842598718511,0.06663449149212712
1005.930710636541,0.06399623902032404
1006.8833904750522,0.059661831179616306
1008.146087891614,0.0581842152569312
1009.0985304921969,0.06676947625309758
1010.360913489302,0.06327248257623633
1011.3099556360893,0.062319348817948934
