unconvertedTime, unconvertedIntensity
-1026.192636818289,0.012441985489539538
-1022.6566396568163,0.013485368743968962
-1021.478254248549,0.014324103710142555
-1020.3039362063275,0.01231883177537176
-1018.7292331422675,0.00963604486631529
-1017.5552408472334,0.00406933514441098
-1016.3735362589063,0.005920901513265842
-1014.8033828072422,0.007977197586840375
-1013.6259310234715,0.011546873818826686
-1012.4486191876744,0.010739336709896562
-1010.8830112455356,0.0076322873833394485
-1009.7021023394514,0.010657826072192173
-1008.5291794028402,0.00972872315404658
-1006.956346977537,0.007762453641761212
-1005.7759062120155,0.008651434016202572
-1004.6034482225199,0.008678366083438104
-1003.0390800472993,0.00994291037121376
-1001.8591062095167,0.010527518204242501
-1000.2912522796207,0.010878119447502886
-999.1194436382785,0.006794114758480138
-997.9399369182222,0.004626180408011068
-996.3727036135789,0.006740302487186094
-995.1974414847408,0.007094423888959438
-993.6306423985355,0.006700952669777967
-992.4557058658528,0.0071193809051769774
-991.2809088329642,0.0070202703282518045
-989.7147297458469,0.007717413834230398
-988.540258115868,0.008004664742803438
-986.9745128091765,0.008161669676474897
-985.8042800366372,0.012792121332666884
-984.6263594437848,0.009532064624047574
-983.0651460168829,0.0
-981.8875515824614,0.008011942636539043
-980.7179205079998,0.009352664648682774
-979.1534129625744,0.003391642534773198
-977.976284233825,0.012679704505204933
-976.8032056575796,0.015688885453094072
-975.2393173701493,0.008742445515842487
-974.0665634831431,0.013343362315687389
-972.5070163551596,0.008106205831226286
-971.3306786922831,0.009017491868841768
-970.1622958165665,0.014082180211610791
-968.5994577560988,0.016603236723204032
-967.4235850536382,0.01739219740003055
-966.2517581077434,0.017531849137427957
-964.689538314421,0.012135960592208993
-963.5219403168239,0.006668356408039048
-962.3466716508918,0.008407314530639256
-960.7850691407959,0.009648942454299668
-959.2237134415537,0.011725677774046735
-958.0528586015533,0.012098574237488176
-956.8860446914593,0.007230668915705311
-955.3214036070261,0.0015451840834048635
-954.1471101735648,0.008285038213553935
-952.984658198451,0.012424252220313622
-951.4206350610336,0.009724589076798375
-950.250704911994,0.011184195040946579
-949.0809133721144,0.013045594666264178
-947.5214068906129,0.01791890804183076
-946.3519386763307,0.02421874718954615
-945.1826089891183,0.022548800207361126
-943.6237181835298,0.01228422629967191
-942.4586080889884,0.020770851434461262
-941.289739519541,0.018978997015523552
-939.7275680282658,0.017254306647445084
-938.562917783805,0.01467788455305194
-937.394510520584,0.015808118059751228
-935.832955514015,0.012817403529763587
-934.6687648474514,0.00844683277940899
-933.1076411630721,0.014878423305705015
-931.9398797307064,0.012970640024423396
-930.3830794983239,0.01626772809300167
-929.2156405503042,0.017843632088261483
-928.0444489973846,0.014749416776261615
-926.4921536107553,0.012626199616947546
-925.3290648218899,0.010306708683275559
-923.769418600533,0.009694825045381546
-922.6027622728632,0.01055783757754814
-921.0474352082789,0.009924470018637981
-919.8811009073214,0.01183307475123769
-918.3262031227997,0.010254473480773305
-917.1640771941649,0.012363669165277308
-915.9943162212134,0.013946147718241498
-914.4400313856952,0.015329310407555351
-913.2744785947508,0.01304544987696633
-912.1090636357885,0.012979661722499836
-910.5553913869038,0.014825867859045916
-909.3902979408615,0.013508020012299672
-907.8409370909984,0.011545854979342903
-906.6722822209975,0.01922387943180824
-905.1194669851656,0.02200622216333892
-903.9511348933702,0.01670976437030407
-902.7907029832637,0.012753895525810195
-901.2384994655406,0.014245492386695428
-900.0745073399952,0.01313826188098052
-898.9106527697055,0.006545141401300331
-897.3629392842813,0.012769808053984559
-896.1955269058583,0.014779121326861159
-894.6443624796585,0.015520988729000358
-893.4811495116105,0.0168764463586123
-891.9304126433781,0.01578024921305382
-890.7675202775122,0.016217873950113263
-889.2210862597736,0.022890860331179277
-888.0546388942835,0.0205029653142911
-886.8922043016602,0.019279432507537598
-885.3425050528159,0.02347380180865164
-884.1803907406537,0.021774833390874646
-883.0184136510247,0.020886966073157584
-881.4654518622922,0.020907619113776307
-880.311539244071,0.018647929260107925
-878.7628759640933,0.026796129504607302
-877.5976675723055,0.027291668582556956
-876.0494314258651,0.028061201743378287
-874.8884142137966,0.024592906979133956
-873.3406044152646,0.023726059601437782
-872.1799068980852,0.025734807851282265
-871.0193463525842,0.026089091430705712
-869.4760130161297,0.02069347389896324
-868.3119042778617,0.018314577737909073
-867.151800129542,0.015869363264613762
-865.6013413212388,0.020580473108281136
-864.4454226675025,0.023303004533193325
-863.2857746472002,0.022877723185838778
-861.7397900607607,0.021920692375598228
-860.58432537253,0.023358992705626528
-859.4212690087878,0.024867572913543794
-857.8758921089842,0.026212224880300315
-856.7170188891668,0.023689277312696596
-855.5582823182418,0.022216206042105318
-854.0135127468401,0.01948886510607337
-852.8550949293427,0.02062186814163766
-851.7006743908668,0.019007199972508687
-850.1526510792544,0.019636603846603172
-848.994688395691,0.025150748214750083
-847.8368622000027,0.025028308371000004
-846.2933062118524,0.027833581422396968
-845.1357983940455,0.027846723976146112
-843.9784269837012,0.026405180455707375
-842.4354772509614,0.02598726457665414
-841.2784240309452,0.026582173306232224
-839.7358984644956,0.025684203193345575
-838.5791633036083,0.028123747181409597
-837.0370617285616,0.021895438972354662
-835.880644495677,0.01704632639042824
-834.7243634775243,0.016659978608810366
-833.1790138642244,0.018734508923582173
-832.0269040239579,0.021189160287449337
-830.8710768811404,0.02432069262008705
-829.3301857473218,0.027196355555606313
-828.1746761582567,0.028797021260812888
-826.6342083421911,0.031252435223814594
-825.4790161760179,0.029060782207697287
-823.9389715032869,0.02768482557228225
-822.7840966292318,0.026330560178569818
-821.6293576975004,0.02008522923413
-820.0899172128718,0.022175844238545187
-818.9316475410086,0.026301451615116513
-817.7812094225796,0.025078275767579962
-816.2423727705735,0.022095531679733285
-815.0884037254596,0.021473846938776082
-813.9345704627628,0.023290590752433976
-812.4001825702273,0.02287178025465529
-811.2428207579319,0.02130580304897651
-809.7050098063407,0.018601945438386735
-808.5518098781556,0.01767851404943964
-807.0182641473609,0.01514419168732934
-805.8615375192857,0.018273092280336155
-804.324570492329,0.014034539461511107
-803.1720033773468,0.011634008139148598
-802.0195717974239,0.01738460016142949
-800.487047759811,0.020810296693908235
-799.3310917241229,0.022503877392621933
-798.1791117551138,0.023737767984162515
-796.643349130211,0.021122863407436757
-795.4916851309133,0.024714746065512376
-794.3401565074082,0.026035156274502272
-792.8049955527165,0.026052478168847128
-791.6537827132557,0.02504030796725565
-790.5027051700506,0.0222538828749553
-788.9681455320604,0.01900001451431599
-787.8173835873818,0.0238780231947901
-786.283244660896,0.017739680521809204
-785.1289635894116,0.016033343116107022
-783.5990797969963,0.020221860713645977
-782.4489486601044,0.023892190431351535
-780.915650637758,0.021860351997479762
-779.7658347102724,0.02297575929315088
-778.6161538328662,0.024367554698305094
-777.0872874783455,0.02510397951406452
-775.9340901800418,0.02133602691717898
-774.7848592977712,0.024627054634871474
-773.2527613682249,0.025072676319091484
-772.1038453253686,0.027934470947973522
-770.955064174084,0.03938483359436196
-769.4235657626508,0.044471033265352004
-768.278927263706,0.04237308069732546
-767.1267675817656,0.03709286114032877
-765.5958683366247,0.034019353234387525
-764.44785112239,0.03266079302572107
-763.2999686414661,0.03250589672812072
-761.7696682110702,0.0367530380282542
-760.6221000156578,0.03849069702282578
-759.4746664745232,0.0345015285519954
-757.9449645075964,0.03060130724235802
-756.7978450676266,0.03136283401604047
-755.2685618162692,0.02881209513128935
-754.1217563485037,0.026692411327298465
-752.9750854007972,0.028052930643574593
-751.4464000163781,0.029298424592953367
-750.3000428567784,0.025504682342844975
-748.7717757706248,0.024718822771935718
-747.6295521921029,0.022062855737375157
-746.4798231560869,0.01993145221912097
-744.9521533411295,0.017242086237013104
-743.8103761313471,0.016542194610059603
-742.2793057689083,0.02390470718003192
-741.1378408615776,0.02510086308831234
-739.988875437164,0.027045872499319897
-738.4660365206347,0.02329804819279505
-737.3173853034235,0.019660974565557807
-736.1765000465156,0.021367437373138495
-734.6466256698243,0.026220976191129026
-733.5022379465221,0.02754591772448844
-731.9804100438539,0.021967823362728633
-730.8325213648984,0.028078018678134305
-729.3072967048595,0.03144967778762695
-728.1635345561359,0.03577569871158173
-727.0160945225168,0.03479037367367536
-725.4990884970669,0.03470411349380991
-724.3519615973037,0.034048588843527766
-723.2087798800728,0.031908150003664766
-721.6847458487846,0.040832436513446584
-720.5418764885977,0.04037427048769613
-719.0182588480242,0.04667464842667652
-717.8757017168778,0.049746112969171745
-716.3525002963872,0.04439394697375911
-715.20644800654,0.03583156673967437
-714.0643371406622,0.03393400774953751
-712.5455368386306,0.03202343164872622
-711.4037374455378,0.02812213004967991
-710.2582663636076,0.02790183221702689
-708.7400585330934,0.026065007593870867
-707.598704516199,0.03088289243127274
-706.0771069194662,0.029724920857981885
-704.9360645108768,0.028778270671948727
-703.4148823068155,0.0300522187956278
-702.2741513789391,0.032884422444557415
-700.7533843974704,0.030012327590322522
-699.6129648227835,0.02979647443967511
-698.0926128939208,0.027904195516833364
-696.9525045449698,0.023913195088892423
-695.812529539477,0.021697959485328676
-694.2927702482178,0.01920698114494396
-693.1531062865022,0.015029795814243928
-691.6337616354076,0.014280134311439624
-690.494408590189,0.01848917897369792
-688.975478409595,0.01683844732924537
-687.8364361536477,0.018547744303856403
-686.69752705418,0.01993815990419106
-685.1791886801649,0.02184515118901847
-684.0405901883538,0.022510177461260848
-682.9021247752173,0.018748204586091152
-681.3843778619746,0.014459464198480902
-680.2462228750182,0.014218618966438097
-678.7288897787109,0.016528378017594627
-677.5910450909882,0.015251314091077293
-676.0741256423995,0.01555464552396056
-674.936591127029,0.01958854139793745
-673.7991895038476,0.024857006393180663
-672.2828606872022,0.02549587417693199
-671.1457690552353,0.02641625117663154
-669.6298534757291,0.02676777981157596
-668.4930717082688,0.022826010929703294
-667.3564227011124,0.01940019986114854
-665.8410971673999,0.01715939031647627
-664.704757843851,0.018590726180455514
-663.1898451372434,0.019771184810070865
-662.0538153707619,0.019710707447552107
-660.9179182328674,0.020090519620254123
-659.4035949866793,0.022145413431496796
-658.2680072251998,0.02272756762612148
-656.7540963966243,0.019961140014212425
-655.6188178851688,0.022640762250926684
-654.483671870773,0.02748551523129058
-652.9703499180207,0.02777082008164215
-651.8317304048685,0.028142346659073697
-650.3226030291477,0.03091978198017462
-649.1880750277603,0.030983219754470003
-647.675576924105,0.030628736874363977
-646.5375772306325,0.0313172227893148
-645.4072708675102,0.031813121015048275
-643.8953608156709,0.02710955529723532
-642.7615825803801,0.026424289870670494
-641.2500839607843,0.029804463153392337
-640.1166142366963,0.028690986705630042
-638.9794991223441,0.02948663220712858
-637.4723655426344,0.028435310822962814
-635.9579128875089,0.029100262077394558
-634.8288362045221,0.029796228353622688
-633.696115197885,0.026979811650972678
-632.1860259288604,0.025030986924298813
-631.0536130020301,0.025523183492265344
-629.9213320709379,0.027864330298874532
-628.4118294496116,0.02591771944134629
-627.2760833959918,0.026734353241454404
-625.7707642475018,0.027934220163126883
-624.6390989914335,0.025706028352202717
-623.1266456917391,0.029245291280453032
-621.9990594958969,0.030638720045867044
-620.8678337003165,0.03295584825268693
-619.3597376394756,0.032742715152522056
-618.2288193139414,0.03234073459217262
-616.7211331295953,0.03133851425802454
-615.5905221487677,0.02880169969119492
-614.4600428487529,0.025793329973690424
-612.9529419124515,0.032328419261854265
-611.8227697782041,0.03239367788411128
-610.3160783128001,0.030331815099667772
-609.1862132191517,0.030331385051627618
-607.6799310577945,0.03034559981788713
-606.5503728796309,0.03445278093651709
-605.4171816626621,0.03155153181852406
-603.9152484678476,0.031301432290007355
-602.7861285234947,0.02954072466025142
-601.6571399995615,0.028124331081302325
-600.1520263597447,0.029756981571396265
-599.0233443942225,0.0297988932481258
-597.5186394157239,0.030420045292631873
-596.3902638837749,0.03026208285912756
-594.8859674001749,0.03032068989337608
-593.7541381657488,0.033104551886327514
-592.6299601908885,0.03467904094771174
-591.1262469829363,0.035040083634096816
-589.9986151274619,0.03178241426700092
-588.4953100106379,0.029327148582807577
-587.3679841612113,0.03205428986701787
-586.2370323225108,0.03231983860289704
-584.7380670014892,0.03125066044957487
-583.6111780875303,0.034907472513013085
-582.1088633578,0.03098563767667787
-580.9822801475457,0.02934203247180864
-579.8520732933011,0.02600011833732041
-578.3540953088783,0.024736616661863307
-577.2279486024491,0.026031419213439544
-576.0981796305496,0.02531977352328319
-574.6007819767452,0.0239011137959044
-573.4750715205003,0.02825960504494166
-571.9705761800622,0.030580830058091115
-570.8489225161569,0.03217834634267306
-569.3485856267491,0.02984768300499141
-568.2159852661345,0.031528263271993165
-566.7198057888935,0.033430757171984196
-565.5987601675678,0.0321622679552901
-564.4703470149282,0.03064489912862
-562.9747462444692,0.034059985377444583
-561.850386554026,0.0346035526495955
-560.7261574538128,0.030138127108205542
-559.2273884212384,0.02589327437830536
-558.1034639430999,0.024445417316404747
-556.6013553740846,0.02589234843626677
-555.4777358291379,0.02824118037587318
-553.9797793717661,0.030397112290223367
-552.8564642011999,0.03254160032434641
-551.358913493879,0.032378529219977775
-550.2396457272151,0.03668489930438143
-549.1130220095089,0.031079307102924135
-547.6160506592039,0.02952996705926766
-546.4972158740716,0.028164263782551092
-544.9969081684509,0.027811152713807435
-543.878376320917,0.03557267178593733
-542.752493315913,0.038293816719492724
-541.256506101238,0.03775267852253821
-540.1384068083175,0.03312994202018164
-539.0166979872665,0.03164238534650724
-537.5175504108488,0.03177285497977839
-536.3998834216762,0.028024790789217633
-535.2786082748617,0.031354267333785754
-533.7837770468835,0.0321149754191302
-532.6590689673901,0.03269248236468134
-531.5382276766543,0.035480338673304225
-530.0477101501501,0.03953491361460634
-528.9234367615684,0.041543561973752016
-527.8067631200416,0.03950285307694973
-526.313087116664,0.04003427875368581
-525.1929816348246,0.04825432576519843
-524.0692729677817,0.054097031890346224
-522.5724421949163,0.05567874795613704
-521.4565023471364,0.0533758375465211
-519.9675392575175,0.05308708294850374
-518.8481692926938,0.051943248555788205
-517.3558777920119,0.047307023779926814
-516.233080469046,0.048938561324552966
-515.1178728304623,0.05352171902622874
-513.6224286386271,0.05131161012831976
-512.5037938986129,0.053697899452243555
-511.0162104901832,0.049883446805933956
-509.89787766960967,0.04849178629331282
-508.7796743907043,0.046018572097665744
-507.28521160377596,0.04830966792247632
-506.1673109328473,0.05211283150831416
-504.67697809353433,0.05321201127239564
-503.5593794763463,0.048256103974032453
-502.0731738323691,0.04883978197590937
-500.9484285019278,0.050563633306903034
-499.4663484513261,0.05238397893290809
-498.34935314339447,0.056412880539846395
-497.22876447436147,0.0612561855709456
-495.7435335891183,0.06987936481397691
-494.6232475599592,0.0722444620897231
-493.1346966764629,0.07261564412132877
-492.02215491551885,0.06855046841878983
-490.53400539273804,0.07935426451576238
-489.41432427564393,0.0888555630348386
-488.2984923744069,0.09360377942063254
-486.8146359873868,0.09724791077185596
-485.69538665041705,0.09978855531094881
-484.5837028111006,0.09847114298379454
-483.0929835598403,0.10404523167273717
-481.97788297095826,0.11592717872867656
-480.4912828182281,0.12221730335726691
-479.38019893372785,0.12312712745535825
-477.89399935306454,0.1259198898279373
-476.7795000520903,0.13525181487966123
-475.6577009235361,0.13921618280705833
-474.17578904968894,0.14326411130182404
-473.06171967844205,0.15618150954366838
-471.5802069825431,0.16846067915287685
-470.4627253354415,0.17454981375334924
-468.9816122269478,0.17764132091659757
-467.8681433098328,0.1827187492077754
-466.3837182792673,0.19537480033933974
-465.26683927456463,0.19703129905642278
-464.15750960942256,0.1978070448365229
-462.6699469897482,0.19888701070318993
-461.55720749216636,0.20084173715191828
-460.4445965656479,0.19664548013423844
-458.965023209494,0.18939979575098995
-457.849004277205,0.18403770685160753
-456.73682176000455,0.18067097658579853
-455.2541115825223,0.17745820335595533
-454.1422288046378,0.17863751429140354
-453.030474449365,0.17293555224472226
-451.5520401030123,0.16897260698344782
-450.4331756153917,0.1638571184736378
-449.32925801780203,0.16050549956086257
-447.84768847489823,0.15435254354215647
-446.73295778966815,0.14253263100074173
-445.62205901684587,0.13783286974953554
-444.14106015263513,0.1265065919620071
-443.03046060034893,0.1244377771986989
-441.55356183207914,0.13362598112726704
-440.44326095225125,0.1313148645431449
-438.95935889852717,0.1269004421053264
-437.8530572168643,0.12540108307452594
-436.7394840477934,0.11955763889400044
-435.25985210192334,0.11361144188545216
-434.15397590057387,0.10709956295481635
-433.0445289262204,0.10575318891538942
-431.5617680286654,0.09985591113080423
-430.45262011505014,0.1011019884618318
-428.97765163690946,0.09853194794400398
-427.8651058581994,0.09717900835517741
-426.3905343229512,0.09420713864093157
-425.278287931945,0.09318492584874946
-424.1698647706083,0.09692471329256504
-422.6921660552372,0.09528410443227706
-421.5840411148509,0.09276659407618364
-420.11043291690925,0.09386350527029877
-419.0026056513689,0.09415452187119473
-417.891213988218,0.09080802733286403
-416.4144804675896,0.09196272937719385
-415.3070792772156,0.09224488091973576
-413.8344334728719,0.09636400387559937
-412.72363953313254,0.09812563202864392
-411.251389734497,0.10414195908783415
-410.140894475651,0.10290437594790934
-409.03421632646507,0.09590320383029834
-407.55884382461045,0.09686028271018961
-406.452463192454,0.09826920313367869
-404.97748729999944,0.09855038560900636
-403.87509079736503,0.09643190784399218
-402.3968246219528,0.1039522444527801
-401.2910386640465,0.10454499069201818
-399.82054068634864,0.10268386301506846
-398.71136671019906,0.10830562453132701
-397.2412638722299,0.10465346944378215
-396.13238792387205,0.10422460187238593
-394.658996870817,0.10222929156524072
-393.5577847972077,0.0951979287990621
-392.4530167419933,0.09367331552516257
-390.9801905187943,0.10067080958654626
-389.87571921073635,0.10869684226842127
-388.40328857070756,0.11164709033094575
-387.29543352052957,0.11444234297251303
-386.1913863532207,0.1208878329379685
-384.7195211202799,0.10957976895849043
-383.61944936777905,0.10788120910911611
-382.5158252502436,0.10436670008537378
-381.04084599974664,0.10731972686110636
-379.93751859179736,0.10876130013402324
-378.834318127139,0.1082759278635615
-377.36725816375395,0.10684381903998535
-376.26067725491794,0.10378089632568889
-374.7940110464156,0.0981255406581717
-373.68772712094045,0.10016698655714505
-372.21777992189266,0.10133472297925217
-371.11914161149383,0.09893873708115475
-370.01328174061433,0.10195592516218115
-368.5438979556985,0.10102113937688979
-367.43833520174536,0.09545296088163731
-366.3439169865942,0.09037703447389624
-364.8714239580297,0.09074636021062084
-363.7699561915956,0.09151167494201448
-362.305200253741,0.09524846201034044
-361.2003571196621,0.0972141908985007
-359.7323242077703,0.09924049407103445
-358.6314471595549,0.10196647035139128
-357.5306966319922,0.10188547167474087
-356.06322603410604,0.10580901821377911
-354.9664386111871,0.09823436134996139
-353.4993608789725,0.09737978241386264
-352.39920007145236,0.09730360427207117
-351.29549909110335,0.09311162769536023
-349.82898368583704,0.09195464046295301
-348.7292445387394,0.09134559490797052
-347.26312217702434,0.09010945646178298
-346.1636777533385,0.09262498759061898
-345.06802378751723,0.09218569148189439
-343.5987984584481,0.08445763282624849
-342.50343806506856,0.07993962541510348
-341.40087746828084,0.07946860550254767
-339.9358772178808,0.07725622743628591
-338.8372742085572,0.07767462035706225
-337.3726663927879,0.0753086067662207
-336.274357650305,0.0735128244907585
-334.8101421115019,0.07377942472851287
-333.7121275176491,0.07179015161221303
-332.24830409823414,0.060961950659372335
-331.1505835348525,0.06500881242818446
-330.0566473877597,0.06336977302359997
-328.589725426338,0.0591208250960074
-327.49608216158424,0.05107263017846283
-326.3952498816188,0.04769296144439101
-324.93254593578234,0.04237917492845892
-323.83566480898844,0.03774049093208788
-322.3770078777282,0.03238135323146116
-321.2767648240705,0.03834518354267014
-320.1803030545338,0.04357119700236814
-318.72220375663204,0.03939341237016088
-317.6223812893184,0.03828696578726552
-316.16101901746254,0.04050845884894838
-315.06514394417735,0.04135867610399468
-313.6041726461823,0.04309327704167278
-312.50859074445503,0.04110209798780761
-311.04801026343404,0.03941356258780193
-309.95272141563703,0.037141322385555356
-308.4925315948009,0.03478151173550106
-307.39753568336045,0.03583256366283887
-305.94138558612013,0.03031443095283098
-304.8466820753103,0.024820926914432
-303.75210402241277,0.02163211487691563
-302.29286173802967,0.020695612283294557
-301.1949289280838,0.02248726602854886
-300.1007693304199,0.021418228822484293
-298.63843844257525,0.020406288033122194
-297.5482177602917,0.021478006609779454
-296.0935686627882,0.02123795422260767
-294.999993497239,0.018829737477198516
-293.9028989721275,0.02133688291105672
-292.4488052115338,0.021522613663907904
-291.35564750895907,0.02741881930301512
-290.25897176629064,0.030871885524445437
-288.8054330246536,0.03424741377480485
-287.70905028703413,0.03421164796161968
-286.25589986961415,0.040763404768791624
-285.15981001964076,0.04012423041409092
-283.703407040592,0.03551417603249399
-282.6112506911654,0.03400258128268772
-281.15523669757783,0.03572976510359619
-280.0633720288065,0.033036592957200434
-278.97163233026254,0.028266615426783315
-277.51617375991975,0.028583082289828927
-276.42836352828385,0.02579383408537084
-275.3334022891139,0.0285747565468691
-273.87849882425803,0.03315947318138945
-272.78746688523506,0.03311089137866364
-271.33295180529257,0.0395835499448809
-270.24221109663137,0.04026660733004372
-268.78808424609787,0.03795915745975528
-267.69763465120604,0.037896969030843976
-266.2438958746721,0.038093661076203086
-265.15373727701956,0.03596478896685146
-264.063703356811,0.03579576853791968
-262.6105187022678,0.03902232191954479
-261.52077561293584,0.03429024008140259
-260.0679786552931,0.032861783061904085
-258.97852628046223,0.03350223594845755
-257.52611686459494,0.03245106592999069
-256.440585420369,0.03218159488843064
-254.98493305880567,0.029523127605620026
-253.89606176407798,0.030093770248350887
-252.4480557778634,0.0347992203476475
-251.35584603771122,0.03495296325092935
-250.27101749739606,0.03169308635876083
-248.8163076378255,0.030677202373786593
-247.7281413155823,0.031916885169582375
-246.27744629355186,0.03198089675544649
-245.18957005511848,0.031216207641195978
-243.73926173416504,0.024529200948045927
-242.6516754635617,0.01871520073614084
-241.56783809649514,0.01906178727717095
-240.1144572703926,0.022134272740888156
-239.03090873965016,0.01999049520846424
-237.57791520524373,0.020065107022948114
-236.49103265974213,0.02301206061776772
-235.40427423012466,0.023817797558514927
-233.9554560230276,0.026054110974365965
-232.8689871144594,0.02808995019507596
-231.42055485830696,0.03198816749389817
-230.33799574747388,0.03349384590523037
-228.8863288957006,0.03564899561941926
-227.80043868225644,0.03613907246978971
-226.71467241475858,0.031655531370046584
-225.26717682622242,0.02237281751963035
-224.1816996834112,0.028765210066912808
-222.73820701833705,0.03090851478160139
-221.649401383885,0.031631259532701655
-220.56433707605805,0.03224406560679797
-219.11777724684785,0.03569102060556732
-218.0330017833925,0.0353271873143055
-216.95196537522384,0.038108348815969674
-215.5023402687146,0.0379310681860676
-214.41797724004556,0.03909295356420845
-213.33373789594336,0.03496806768210183
-211.89189117495172,0.030530276375472384
-210.80432696973557,0.028032844430922976
-209.35925148253662,0.021956978076999863
-208.27558905338793,0.021986048934823053
-206.8345094763754,0.025718466543361886
-205.74752387832194,0.03088143375015423
-204.30682764373134,0.03206123847070444
-203.22013117612437,0.031053624397776407
-202.13716866772856,0.030642072200435966
-200.68980155849425,0.030459640870753934
-199.61073617569215,0.029741775567637237
-198.52818506867536,0.027963152879797695
-197.0849755052141,0.027862712925647057
-196.00271223969813,0.025020617363802886
-194.5598863883636,0.025924598610256096
-193.47791084955588,0.025106929442078364
-192.0354685573428,0.02268061330582653
-190.59324537309715,0.01972255069168479
-189.51172174449192,0.02123737880284652
-188.43032131499118,0.03374020613113805
-186.98864568231394,0.038418350708881895
-185.90753263552307,0.03929302766787447
-184.82654271769144,0.03877690127245838
-183.3854143248149,0.03921206057783492
-182.30471162607893,0.04070060828365298
-180.86756770673364,0.040723990734321466
-179.78715170257524,0.03668474147385332
-178.70325793734185,0.03563016389989924
-177.2666593617201,0.030817851151398776
-176.18305349427933,0.02887519852160077
-174.7432372063495,0.023161437627151477
-173.667117248834,0.022924138793362622
-172.58392246502507,0.024904399338251965
-171.14825026160926,0.028222777734593363
-170.0653430971699,0.02736378840806116
-168.6300520807089,0.026449921134159976
-167.54743242109848,0.0327764672661296
-166.46853248121343,0.037499954226398166
-165.03378575425742,0.042408845092316044
-163.95157661725304,0.04304552648335937
-162.87668053188048,0.04011057097004699
-161.43528879865613,0.03777185658497446
-160.35708417131778,0.0371947450400421
-158.9196687594869,0.03414504717780612
-157.48247131129415,0.030728278052630415
-156.40830854729506,0.029495751264311598
-154.96790010285477,0.03187295373122685
-153.89043095642816,0.03085499053885833
-152.45758680656704,0.034060700091863065
-151.38040306904668,0.03705924306956429
-150.29975179032803,0.03271682572777929
-148.8638610834444,0.031386739366134356
-147.787085867101,0.03146044203769453
-146.3515759573934,0.029854527771581756
-145.27149818780774,0.032384436823074986
-143.83995701815027,0.028695069319468976
-142.76375277040478,0.026480362877492492
-141.3290040007658,0.03019967061077896
-140.25308506702908,0.032362452247951375
-138.82230229056793,0.03416479865462696
-137.74666815004886,0.035212424443609475
-136.66757136819075,0.0350545151933529
-135.23374602649287,0.03417267013471764
-134.1585195260305,0.033904638539434484
-132.72865750300866,0.037622339415839694
-131.65013258510703,0.036812988637237594
-130.22064943753728,0.03678671228575143
-128.78421847841403,0.03747889983832209
-127.70972441425833,0.040058365195492635
-126.63535235005781,0.039214579700821005
-125.20662650177049,0.03871471940624349
-124.12895852782529,0.036457050325029924
-123.05499298011192,0.035203218829277766
-121.6232285506161,0.036506977885890135
-120.54954742717723,0.033549502614588195
-119.475988165268,0.03265529939966156
-118.04476534258421,0.03355748991237564
-116.97149034357955,0.0301413395711274
-115.54064646283109,0.035268284880340645
-114.46765561384115,0.03478161246350167
-113.39478650888586,0.038693974636983236
-111.96448371274617,0.04521592723601863
-110.89189859663894,0.04497131921645922
-109.46554891800382,0.04918184468423313
-108.39324727255023,0.04994475595563516
-106.95655375039522,0.04463100128596558
-105.88810986738554,0.04490011237486553
-104.45894235035344,0.039175301809733755
-103.38720852457622,0.038314666953255444
-101.95841913356311,0.03919555091415106
-100.88696884602057,0.03858325075278881
-99.45855743097559,0.03986939595918887
-98.38739056916546,0.03678455826823115
-97.31634514109948,0.038048183431146236
-95.88847343159604,0.03837862299938086
-94.81771126864335,0.0445927551157039
-93.39021717104107,0.042476706329204215
-92.32330622267759,0.03671966439419908
-90.89262152536489,0.041738279634610596
-89.82242555561997,0.04363707431855846
-88.39568623257544,0.04212841241778247
-87.32577319104155,0.04686429462538048
-86.25954714150625,0.050738297623812594
-84.82978080531095,0.04785598718060497
-83.76383658126633,0.04685352940708631
-82.33444813676684,0.04068034580098541
-81.26522173967813,0.041627082443841
-79.8397749238915,0.04202193405493586
-78.76726812690087,0.04511281928641504
-77.34576090530278,0.050578392564168864
-76.27709948390074,0.04600167561427313
-74.8559672857145,0.040497408699549
-73.78402671828495,0.039782878637948584
-72.7157685768287,0.04067759821171969
-71.29161251273814,0.038768060657968346
-70.22363653144139,0.037856823659703005
-69.15578144169824,0.0394071248936163
-67.732162673434,0.04043209275757255
-66.66458958418532,0.03635125939515351
-65.24134674210742,0.0337396547569846
-64.17405554165597,0.029291392241238324
-62.751188476879065,0.029121438489642826
-61.6841790535927,0.031026237241727043
-60.261687617315445,0.02936678616466726
-59.194959859621626,0.03709803414228636
-57.77284390311318,0.04083276632297829
-56.706397699496286,0.04242846690622841
-55.2846570741071,0.0407272384646071
-54.22204599533486,0.040623081851472224
-52.79712687028114,0.04414522290927751
-51.731243440509786,0.04206095044926235
-50.66548054717787,0.03567022482020984
-49.241099015984105,0.035506824449392266
-48.179169100708776,0.03733295959927652
-47.11380784787073,0.04240361488531174
-45.69351353724276,0.04167764510145789
-44.62843329767075,0.039782358970631086
-43.20851359728415,0.03696834031247508
-42.14371425981223,0.03891241438408923
-40.724169021472825,0.03785515257029219
-39.65965047498382,0.03764584109266981
-38.24402721125473,0.03924582142396319
-37.176241684028675,0.042211139418546005
-36.11212407489319,0.040353122425218525
-34.69348762791735,0.03654862460373244
-33.633196464135466,0.038019510405187175
-32.56593364191424,0.03284832375712957
-31.147831370482365,0.031962660754998866
-30.08439483518841,0.034623300501108
-28.66666630713761,0.04000478784283952
-27.60351002397809,0.038163722122898834
-26.540473814959626,0.03694565880543745
-25.119736230032547,0.04869271436956029
-24.060522834672593,0.055270496631506454
-22.647243141964882,0.06005063359280647
-21.581225222348593,0.06551840705468909
-20.518869049400443,0.07691082695058894
-19.10258071982011,0.08808899291088973
-18.040504372069268,0.09588513113160195
-16.624589069049748,0.10661119231351063
-15.559253314258843,0.12707129204647713
-14.501115646741196,0.14318799445961755
-13.085732983214083,0.1513881824575225
-12.02787354263879,0.1633156088797786
-10.96305829473038,0.18523186384317175
-9.548207970198202,0.2018864178578442
-8.487209913227048,0.20789585869287217
-7.4263315649639,0.22414875813230883
-6.0120132791568635,0.23292206394933077
-4.951414172446015,0.2408417631182771
-3.5374681352034165,0.25724892016538325
-2.47714815980861,0.2831030494475984
-1.416947778386116,0.29303984325584037
-0.0035332699277208085,0.31127120921209867
1.0563881375615178,0.3200552995029298
2.116190018502267,0.33085012950362513
3.5290732978390977,0.34315767417716003
4.588596362107406,0.3393114104520831
5.6479999671995476,0.341091729273603
7.06035231684977,0.3415025135826219
8.119477262419155,0.3388683033400428
9.531458139332909,0.33835487119030394
10.590304535306794,0.33488179085859454
12.001914086022134,0.32879564422089064
13.06048204227357,0.31326421552333905
14.471720413249948,0.2948132260911955
15.53001003959777,0.27281349550536915
16.940877377210608,0.24604364616330127
17.998888783414024,0.23331973646907975
19.409385233973698,0.20234887998862924
20.467118529726864,0.17849886948486351
21.87724423946243,0.157240516259836
23.287158162923713,0.14251142158208377
24.34445464947533,0.13573054612302293
25.40163205320175,0.11998145002093312
26.811016719664565,0.10256354309733895
27.86791634170065,0.09866351783135635
28.924696947953176,0.08246909502410169
30.33355265537525,0.07590681251253166
31.39005563630379,0.07407231943052055
32.798541249555164,0.06315467954460803
33.85476671454487,0.05612576588622415
34.9108732776058,0.054053084197765645
36.318830437827145,0.04834004360351438
37.37465964111773,0.04881778092602555
38.43037000938294,0.048040125965245845
39.837799013922115,0.04838117027806243
40.89323217846619,0.04550197899109378
41.94854657483952,0.04055896296911115
43.355447720827556,0.039963936030232315
44.41048506941784,0.0367253422456639
45.465403716637766,0.04056536290194273
46.87177730097801,0.046335829199956394
47.929934330354236,0.04807774491854574
48.980942176868,0.047855210716428044
50.3903028478361,0.047704625481210426
51.44454883694626,0.05060585154891826
52.49867625821099,0.05218794702562018
53.90048204794676,0.04625814656781585
54.954333283721546,0.041947289056569886
56.35928393291967,0.040576820915302535
57.41285869684774,0.04214375831463026
58.46631500614819,0.04109195188063219
59.870739190314815,0.036847073754152485
60.9239191831564,0.03818697470562142
61.97698078793496,0.037023772100099536
63.38438828431268,0.03972230698636471
64.43366424652088,0.04108817517111605
65.48633136856736,0.033918303231446754
66.88970351003624,0.03272450479208766
68.29637302605842,0.034054843504917505
69.34509883182929,0.027344898680771338
70.39721405033609,0.03252527916876735
71.79985046511814,0.03874536244509688
72.85168989460333,0.04000101164210319
73.90341116199221,0.040658670846268986
75.30552241187733,0.04364430755292403
76.35696804511474,0.04524656458686613
77.4082955826063,0.043077376437965074
78.80988196248123,0.03820758445710067
79.86093402058034,0.04048805147687168
81.26215316678939,0.040989646629893704
82.31292985376449,0.041944665206181245
83.71378191061494,0.04549825068529583
84.7642833346694,0.04366783422451186
85.81466682201149,0.040624527593713065
87.21849527276,0.04510362671545595
88.26510309457696,0.04443885880102265
89.66506424904462,0.04775321242289569
90.71489762757024,0.04341100042865585
92.11449218688578,0.04352978473955943
93.16405067304937,0.04260062662614379
94.56327878119484,0.041866872906281064
95.61605989839904,0.040751183113731715
97.01142428382111,0.0357322858120404
98.06043330906037,0.035637230984689225
99.11282075650253,0.036363127040816894
100.51115898784997,0.03455651494036548
101.55977541303086,0.036362471921043575
102.95425301647478,0.0353275423159826
104.00259541904606,0.03370854835542256
105.05431413446425,0.030673249552158287
106.44827049628084,0.03609815356954331
107.4962210646579,0.03838361585988704
108.54405412561515,0.040068388088952696
109.94098211839442,0.03832300838419592
110.99203273899866,0.03585114682720367
112.03598258448092,0.039689506177146144
113.43587936828267,0.043592916352952864
114.48304653574668,0.044823515159020964
115.53009632751875,0.044051023713055075
116.92598016626611,0.04265081781796784
117.9727561581806,0.038975781655102584
119.36478646492438,0.04112764013325932
120.41477730147287,0.0371469971534387
121.4576745816367,0.03339089866912701
122.8526727735385,0.0347378199780508
123.90227150420525,0.03565195155665795
125.29341820488095,0.04403982262528079
126.34274259210369,0.042663563234894016
127.38497796243122,0.04205327144607389
128.78257585083276,0.04347906701565959
129.82802348413546,0.039111845106190424
131.22177153040406,0.03981633825815439
132.26346227155966,0.043087977324383804
133.30852008244864,0.04714823247854031
134.70523127765733,0.04426543831956531
135.75001567965475,0.042198754630321134
136.79120107587994,0.039425156537522835
138.18390957025673,0.03485214048044007
139.23178564169035,0.03369843894393147
140.2760632925607,0.03624279161089156
141.6682516678985,0.03646359717298797
142.70877678311686,0.037151322057518234
144.10060213120045,0.03957180245926747
145.144334851656,0.03493342012570608
146.19142929782868,0.03180503907320436
147.5792570159888,0.03313751398668644
148.62607809992042,0.03689360024817965
150.017020622716,0.03903240980163692
151.06009135385509,0.04100892336343419
152.44719462795632,0.0389853191119721
153.4934693084571,0.036324059470787526
154.53267574453332,0.03392819738617107
155.92621221242345,0.03739647716574022
156.96862197246915,0.03814538543219923
158.0109151557796,0.033824260298657594
159.40045809239362,0.04104163089996162
160.43900612874623,0.04174373897409754
161.48438407474285,0.03780715563254103
162.87340918213934,0.034567839313647104
163.91157021677657,0.032621847499440554
164.9565586377507,0.030933414100729865
166.3415951944601,0.036836358942331955
167.3828404545369,0.03740150175950102
168.77445653924673,0.040400108741862464
169.8154298851348,0.03765862662033262
170.85628689515667,0.036260287482347206
172.24391530864625,0.030168051654400167
173.28450094413827,0.03891647230672461
174.32150227064952,0.03763193721866258
175.71208196275674,0.0392864122320765
176.74881297031737,0.043469496858899406
177.78889529335152,0.04745646465369052
179.17895722326386,0.045590091968350156
180.21876808749042,0.04701581410562048
181.25499735448844,0.05243816777099562
182.64454181132467,0.04853250301814777
183.68396561436194,0.050480601409620726
184.71980917488938,0.05252864283997994
186.10883644755415,0.05450410658283559
187.1478734054836,0.0535033629269023
188.18679435199164,0.05327622461707252
189.56837949036154,0.05092289118145337
190.6139541546373,0.05081981555499568
191.99171746772907,0.05054646482041591
193.03009767078885,0.04946191802109213
194.41442432041936,0.05029318206035721
195.45253411694938,0.04823638348145401
196.4905280572995,0.04567002617115184
197.8812583319046,0.049224484291550984
198.91552236055188,0.04934402858910276
199.9496713683699,0.049648268386315246
201.332968472514,0.0481723498158824
202.3737638598075,0.04648471039855536
203.41098553531276,0.040534639413591714
204.79376778315964,0.03693530665240012
205.83071950451853,0.04278568588503586
206.86755556350678,0.04502495055489309
208.24636834218026,0.04374203169658898
209.28293498290532,0.047576019184840834
210.3193860256722,0.04632309868523797
211.70459509365443,0.04484889400004039
212.73732235316038,0.039117968813391614
214.12217105490274,0.03943625757202202
215.1546296648313,0.04078835010548551
216.1904260176566,0.04373819748872147
217.57130820611576,0.04503216975908475
218.61028672450453,0.0468339911354501
219.6456978706033,0.039812012340366625
221.0226158843627,0.040482426688853976
222.05775816735854,0.04007879829359307
223.09623498743878,0.04130993263607103
224.47609095729405,0.043438416458996196
225.50739939840335,0.046086535752145295
226.8868971536884,0.04339964121840206
227.92483408956954,0.043245667742382914
229.3074203353531,0.03846829033912871
230.33819230586846,0.03868508893324779
231.71697251445815,0.04215491184917344
232.75092329185756,0.03928651714004016
234.12934519291215,0.031873570704773556
235.16302729202988,0.030944181333695024
236.19659427537755,0.034386485829653694
237.5779490700736,0.03754470493626314
238.95221025561963,0.041648497736963004
239.98535531227284,0.04271326399557686
241.01838534284656,0.044093262107967136
242.3921370893901,0.04369758267265239
243.42489918371555,0.04131294065876215
244.46098828080122,0.04472249620879218
245.83767181612458,0.046731283585949954
246.87005039496506,0.04910673624615753
247.89887338760894,0.04972661904856037
249.2750467752167,0.05014509151111582
250.31048261255626,0.04610807701445656
251.34236343813126,0.0453330223139993
252.71458703928297,0.038074349730729616
253.74963889474628,0.03781243215606956
254.77769894145547,0.03921282329714134
256.15628949076245,0.03994968920961387
257.18408270688457,0.04128520418893009
258.21863570515046,0.04061235435012852
259.5932783111749,0.03857178047079209
260.6241264910633,0.03688251414284705
261.9984124011107,0.03687166122824899
263.0289931110797,0.04241792904623188
264.39948789457276,0.047041378114499315
265.4332358081017,0.04888489348761247
266.80337506412474,0.05094709974021802
267.83342152818506,0.05157768107797514
268.86335348324087,0.04970878722945573
270.2398504041359,0.04586769729740682
271.2695148642463,0.0548807518510864
272.2956332357494,0.05548401420727504
273.67162023905615,0.056018210228114255
274.700903288988,0.06075510157737867
276.0696725198809,0.06378605715103738
277.10211895395344,0.06437339560741515
278.12759132266325,0.062421193395870954
279.49928314119734,0.0685558693019708
280.5313472549307,0.06917072781908998
281.5564399069208,0.06849155959438077
282.9310515471852,0.061719477623714235
283.95587852295176,0.06767629483172391
285.33013392422225,0.07441319322777984
286.35469532703297,0.07851835931016299
287.7285946277784,0.08278431845040403
288.75631610954224,0.09908634297364163
289.7804983014514,0.1037044314794357
291.1504644659529,0.1139200755207328
292.1812302777689,0.144090073541442
293.20845737013457,0.15848794249068326
294.5779161022614,0.17754885200616122
295.6014541186374,0.19827430102709612
296.63172416824665,0.21200173362314642
298.0006762563764,0.23198296776290098
299.0272573776291,0.27098287786806413
300.0537245672312,0.28934743172855437
301.4221702924704,0.32617120326174237
302.44837171530736,0.3633787863464923
303.4744592696973,0.4341373026062887
307.91610486229666,0.4584044107167085
308.9415858174621,0.4641100635122596
309.9703707245638,0.47883136844373864
311.33734958514435,0.5021988382088666
312.3624510730595,0.5105932734260983
313.72907621622386,0.5139858525096596
314.75049653550684,0.5193686546888142
316.1167686035419,0.5174117808066616
317.1413400999198,0.5178945051346248
318.5106732683487,0.5122702562280868
319.5349793552629,0.5012161500114269
320.55917188904056,0.4924010438548776
321.9211720465213,0.4805886887096518
322.94510007472655,0.4770355723843917
323.972327138022,0.46142117588908793
325.3372361765002,0.45737492247055217
326.36078559901915,0.4517736147812018
327.384221594196,0.436176569621015
328.7486265111494,0.42877308253627777
329.77179791584456,0.4270736276588224
330.7948559560245,0.4098796439592307
332.1587570306948,0.39325505386289583
333.17814150316656,0.38934000253449935
334.2042309214518,0.3809667141712826
335.56762843287197,0.366183051091334
336.59004442988686,0.35879991345414963
337.94968225096693,0.35766250549176776
338.97183443027336,0.35821631909410984
340.33793440616097,0.3501788067106617
341.3598221154541,0.34455902609201877
342.72216305139017,0.3487161252835895
343.7403815458517,0.3519463780124489
344.76529738192033,0.3468407271393865
346.12713561830066,0.3365193880251869
347.14838238564477,0.34251185213736485
348.16951610818046,0.3410462250233512
349.5308519231978,0.33885385761604525
350.5517219475095,0.336653400277679
351.9127062329819,0.3323877284673272
352.92991082738206,0.3334675009019167
353.9538061509079,0.3329236069957492
355.31428848747197,0.3380760487005155
356.3345185269006,0.33352950906806095
357.3546356902958,0.33392805590161373
361.77383950991634,0.33898298453912235
362.79335498404566,0.3393947383754922
364.14913585576295,0.3424497303405947
365.17178595473007,0.3397521274061574
366.53061382861347,0.34359480488875793
367.5496032612088,0.34314909260221466
368.5684800235875,0.34431037389831615
369.92680714094644,0.35110566297258206
370.9454210788191,0.3579844456052773
371.96392240874087,0.3558324600575599
373.3217490463342,0.35302795636427253
374.3399876969951,0.35010430912000706
375.35811380193286,0.3464856907698797
376.71204716962376,0.3493080142791118
377.7333038071243,0.34912540871952963
379.0902802636945,0.3487821030346318
380.1078814019113,0.342478837175925
381.12537010008487,0.34019337808434136
382.48184682311603,0.3497285264544159
383.4990732336506,0.3519722560587358
384.51279707278064,0.3465946455050979
385.868774837602,0.35387046540501693
386.8890164215367,0.353622438659272
388.24464423087954,0.3602075643173178
389.2578456328948,0.3629292350540966
390.61651256747166,0.3609395118830127
391.6328404756291,0.3616228809362265
392.64905615469667,0.36322818659795064
394.0038358470012,0.35201554674352736
395.01978973048136,0.3452561696278736
396.03224549406883,0.3420502365777468
397.389912618488,0.3384217487166267
398.40549268372564,0.33973045126816037
399.7560404721891,0.3367866762648135
400.7747435698638,0.33850517354205717
402.1249435638913,0.35022728647984497
403.1433843409998,0.3665926974423797
404.1549464244541,0.37190550740222417
405.5147976979046,0.37002444646904986
406.5227168823963,0.37384686475559187
407.8754548850563,0.3725066072559618
408.8932590196059,0.3746415679922139
409.90756964488946,0.37267280572377404
411.25642940377026,0.37400424442792957
412.2738593215165,0.37597000842681844
413.62575142011684,0.3807799165437955
414.6395400265383,0.3818094940500309
419.0313322128793,0.38415656368177864
420.0445247196229,0.39092444270137316
421.39527429378285,0.40144590596834184
422.4082061722318,0.4096871634050934
423.4210263836223,0.42274335663478346
424.771279659741,0.4268702315193315
425.78046437277294,0.4290025321722603
427.1337454166851,0.43753648081970165
428.14604475921857,0.44223983544002554
429.1548587652996,0.44523873042628476
430.5076427362425,0.46856297524665363
431.5161973689793,0.48063413794977794
432.53138631383973,0.4923301470608719
433.88030095069774,0.5157272665504541
434.89185689158836,0.5474472496101981
435.89993009628483,0.5620739162706667
437.2517207425452,0.5901246724896335
438.5999420537383,0.6233606551580906
439.6109781006107,0.6743935181814066
440.9588529494024,0.7315120732011304
441.97299826757603,0.7555364573852701
442.9769254406669,0.7996895007217225
444.32767427304276,0.8463690442898312
445.3347117258893,0.8652175830261639
446.3450061328227,0.8958559070839587
447.6952592866082,0.9238828724733418
448.7019272149075,0.9390247449198049
449.7152171489935,0.9621133026651789
451.06160867053563,0.9789893713077238
452.07127263960126,0.9841318704661343
453.4173184037797,1.0
454.4267231047663,0.9984520341159304
455.76905924060185,0.9896041845175314
456.78156877751627,0.9617075653058762
457.7906032687373,0.9455352435905332
459.1358098907512,0.9082888353945927
460.14458535630456,0.872805271142301
461.4894466772548,0.8416658720828841
462.5013247531453,0.8226754692971029
463.8424793696941,0.7835022326384843
464.8507370830408,0.7604828005353629
466.19490820060884,0.7320139922096787
467.1995473748446,0.710205704885449
468.54673340242215,0.6781443404315488
469.5544737620688,0.6534410965941053
470.5587447308954,0.6337599582319544
471.90543703954813,0.5995341191132076
472.9128081045906,0.569228868928486
473.9200684208343,0.5496428794936223
475.2629099314808,0.5430331372612355
476.26991190487644,0.5144144636794123
477.27680319033215,0.4876641990532979
478.6191527545754,0.47473647375734174
479.62243057929334,0.46920597436444045
480.6323082965703,0.45104996752713983
481.9741661846936,0.4318953531517081
482.980430583079,0.4204048223983721
484.32194445863433,0.4095728302601523
485.6632618149755,0.3945058678083165
486.66912089246415,0.3892057556187871
488.0067422550907,0.385061245107106
489.01569571757335,0.3809323260488234
490.01783508140545,0.35742381958590097
491.3583182034184,0.31464289841919046
495.71353292626753,0.300106335087205
496.72163719451635,0.2891221331669312
497.72628177760635,0.27934644183170193
499.0656363145358,0.2697652429250269
500.0700235603835,0.2639950039654743
501.07430054911254,0.2605790993914861
502.4131650543858,0.25538909577930335
503.4171848470871,0.2513451565951014
504.42109444317094,0.255899673837175
505.7594691856702,0.24818109815697076
506.76312172684067,0.23709628414367845
507.76666413184336,0.23092873565245925
509.1045493802555,0.21958958177553262
510.10783487135615,0.21588728702484206
511.4453776336702,0.21015775228191094
512.7793816248067,0.20928371737163803
513.785606717223,0.21121217007917387
514.7883786764093,0.20545778358816352
516.1252368609355,0.20191341153072837
517.1277522020035,0.19982104657009223
518.1301575940316,0.19161908864863694
519.4665271161542,0.179254780173208
520.468676030753,0.17680694687472773
521.4707150565855,0.16636589523954534
522.8032567248782,0.1633657504902944
523.8083788731778,0.16107320433591107
525.1439182838975,0.15113583236773392
526.1454447343963,0.1504414746049539
527.1468613984962,0.15492174392452757
528.4819128696444,0.15559069155633343
529.4830734356638,0.15318911347543254
530.484124275436,0.14622102546941285
531.818688074366,0.14516691288802258
532.8161471556043,0.14458359691728254
533.8201681722344,0.14520038107946318
535.1509096181427,0.13898637319055457
536.1546739644124,0.1411163626060408
537.4884093336022,0.14227172797793866
538.4885830124248,0.13903317652129907
539.4919804910578,0.13719333149104712
540.8218955450571,0.13327931632557402
541.8217040803876,0.13570876728671302
543.1546117909652,0.1261966003908001
544.1574965052719,0.12851498861831331
545.1536084365767,0.1283370347907871
546.4860296489782,0.13315030350610885
547.4818874533579,0.1348550080177643
548.817298721258,0.13266855794121213
549.816231727615,0.1276134931657231
550.8150553737217,0.12560494120730548
552.1466501502822,0.12084931370638419
553.1452186922913,0.11767795118816611
554.14367793389,0.11919285045200774
555.4747869308455,0.12346696050841678
556.4729912079349,0.12306200214185936
557.4710862444128,0.12295338039797453
558.8017097275392,0.12077505980363838
559.7995499389907,0.11952042152102622
561.1298337204697,0.11861429920338809
562.1274192044672,0.12222731152039432
563.4573634143705,0.11716386023124264
564.4513700134963,0.1158321579446875
565.7842990367782,0.114893491344946
566.7780519518292,0.10984505738783737
567.7783426245229,0.10460275961554215
569.1074627017074,0.09759807832093882
570.1041755745446,0.09789038109553345
571.4329565256006,0.111971937300657
572.4260937549238,0.11555901623120468
573.7578570572219,0.10911545528900339
574.7540614355241,0.09666760492424678
575.750156901338,0.09369841436023038
577.0781148005296,0.09167133323589592
578.0739562066524,0.09569317212017339
579.4015754243876,0.09301048789259132
580.3971628680046,0.06384890532455624
581.3926415002891,0.06767965814271852
582.719777112082,0.07080178698534269
583.7150019206115,0.07733552203301253
585.0417991654533,0.0811003949089737
586.0367702472963,0.08448518529653196
587.3632292545784,0.09917516698172166
588.3546311624314,0.10468317558684082
589.3525554901796,0.10469962241270288
590.6785315252627,0.0986149279599377
591.6728868175276,0.10137716170872427
592.9985249290035,0.1020453258361161
593.9926268270092,0.09831464873212363
594.9866201571211,0.10159274092067068
596.3117757446261,0.09696180685054355
597.3055158188149,0.09636909613674563
598.2991473843751,0.09251436073518346
599.6238207113162,0.08566609731902868
600.6138880778565,0.08841526192111805
601.6104691576634,0.08357275792450292
602.9346604872549,0.09095854954022471
603.9276775061801,0.09490914953963611
605.2515315941301,0.08944366444484492
606.2442957301411,0.08071240991306715
607.5645041529737,0.08854528065616948
608.5603240549547,0.08631441773474147
609.8835040460154,0.09059148776721294
610.8757627059074,0.09309769266259907
612.1986058415873,0.09724598003979894
613.1906119081744,0.09441531946605344
614.185815895203,0.09318313991271991
615.5048718868144,0.09929322867896596
616.4965172731116,0.09958174256371038
617.8185428667667,0.10062657356683381
618.8099358938898,0.10128783769123004
620.1316250728624,0.0997107229778498
621.1227658371292,0.09595399541487698
622.1137985182166,0.09327064642276747
623.4383101088106,0.09398736817364142
624.4257878832441,0.08891231858690475
625.746660589546,0.08618209551648004
626.7371891161542,0.07990519370107184
627.7276096597117,0.06786088337428882
629.0480024413362,0.06505239730464388
630.0414714747885,0.06604502849330422
631.35822808306,0.07177290649634584
632.3481449391123,0.07301717088247019
633.3379539121182,0.07725508269552543
634.6575314218638,0.07710042691896168
635.6470887363341,0.07974984923324668
636.9663307653534,0.0746833145433429
637.9556365172507,0.06573814437735191
639.2745431934579,0.06414765260148561
640.2635974787017,0.06736289815305918
641.5821689299513,0.07249857814573682
642.5709718444042,0.06763144249020166
643.8892081984883,0.06286553254524556
644.8777598379692,0.05876090236480015
646.1956612226097,0.053528661475193876
647.1839616828889,0.05524029910094569
648.1754483204369,0.06013904060570458
649.489577602544,0.07093380243474291
650.4775194014209,0.06804751078104948
651.465353639953,0.06383314752852925
652.782298672254,0.06145813622301938
653.769882004939,0.05512301260206356
654.7573578358099,0.063143031819305
656.0738250822607,0.061453849084160156
657.0643407143441,0.05890792219930012
658.0481677620513,0.056094495389447364
659.3641574826166,0.05751930788073808
660.3510244679669,0.05678333116175231
661.3377840684426,0.05670320624669766
662.6532965228971,0.062343264724709434
663.63980562682,0.06205236860473265
664.6262074042769,0.056583845292480145
665.9412428522085,0.05194202521624847
666.9273942693453,0.052391120710724014
667.9134384183816,0.054205903669168116
669.2279971191856,0.06406561132233712
670.213791044037,0.06644485828860594
671.1994777591068,0.06631378583823581
672.516844938759,0.08022058309237946
673.498996598917,0.08336881462259904
674.8127454243906,0.0872518126439301
675.7979320583289,0.07871261050145868
677.1113476232459,0.07944290598469883
678.0962843593226,0.08851383317268191
679.4093667904721,0.09029623217669322
680.3940537237526,0.08508637124725588
681.3786336277848,0.09294683596952708
682.6945216518749,0.09847704270246312
683.6755706103407,0.09828961987988817
684.6597938762084,0.09401755481488688
685.9752052847389,0.09729551762057734
686.9558989291139,0.09113657626009429
688.2709768608083,0.09183427825841309
689.2547008024259,0.09796962770307324
690.5661664818126,0.10896311564394476
691.5496410818536,0.11575856390684329
692.8607743690048,0.11769211500952487
693.8407224818137,0.11808259263007538
694.8238413999591,0.11536305544276405
696.1345005347251,0.11019190986318592
697.1173703412722,0.10992646790785766
698.4276973903665,0.11044036927334931
699.4103181799904,0.11190998030066206
700.720313269603,0.10477194564784752
701.702685136925,0.10292054956947062
702.6849503522143,0.10068895278233413
703.9977449979677,0.0964293871248195
704.9764878608712,0.08999336098685459
705.9583976947977,0.09983519335501569
707.26744502356,0.10454082602949451
708.2523782310491,0.10205095451428123
709.5578220607149,0.09798852472471464
710.5425058819692,0.09466016537866566
711.8508899167186,0.08364928738806605
712.8320537223897,0.08265970481536729
713.813111072697,0.0861563838628859
715.1177524311278,0.07959821855409616
716.0985618076337,0.07997260842116771
717.0792647864473,0.08018712048469971
718.3867032806,0.07199056953286152
719.3671580654542,0.07126302166976803
720.6742656971454,0.06464378186975249
721.9811843209479,0.06346631644230806
722.9612492770405,0.054535527803240835
723.9412079565487,0.05199268295067561
725.2476542399662,0.05290893202788369
726.2273650079903,0.054930617007038655
727.2102347279259,0.061679815940927786
728.5162084550232,0.0657375765467254
729.4923005280065,0.07291324164554994
730.4748151297068,0.06878794889715488
731.7770535090334,0.07424086179702157
732.7560564766811,0.07290470647370746
734.0612287193543,0.07413012582434754
735.0399841380752,0.08024403151075515
736.348088247455,0.08712641468849418
737.3233343417775,0.09038010719791718
738.304997444542,0.09321051042004738
739.6093679982047,0.09331634499096222
740.5875222641771,0.09591778348188534
741.89156311918,0.09140734104664414
742.8694701580384,0.10053891119739909
744.1699223959398,0.10924095968955055
745.1475826543782,0.11266418302853601
746.4509649575223,0.125265101366616
747.4283781760965,0.13067397133705014
748.7346885518632,0.12447798754784876
749.708597427517,0.12321139489173083
751.0145777811115,0.13060827393826385
751.9882406270117,0.13406040831452776
752.9683101499915,0.13883507287138658
754.2673079928466,0.13865267293251374
755.2471299744292,0.1355689723091625
756.220336155201,0.1404734088978173
757.5221200528117,0.1369506896820225
758.4983346943574,0.13879560969899296
759.4744436849711,0.1402724659603122
760.7757580228608,0.13691881870982184
761.7548732598576,0.1360867071818636
762.7273775059846,0.13296227226780305
764.0282225381684,0.13689628108315569
765.0069846895841,0.1378014232596243
765.9823894269705,0.13502373675949295
767.2827649383535,0.13854714335820387
768.2546731369499,0.14215772915726022
769.2329765625728,0.1421181552634935
770.5328832759791,0.14104149375532388
771.5044411143236,0.14318649068283384
772.4791430631394,0.1445943279324887
773.7818300622558,0.14843447592327116
774.7530377297614,0.14842078228390965
775.7306360528635,0.14883730554040467
777.0296059305233,0.15694178818180832
778.0037104566202,0.16025433980581538
778.9777096741383,0.15623370230506295
780.2729654924267,0.16197274574241846
781.2467194071975,0.15756178215911715
782.2236133897992,0.15611400607382284
783.5184025922059,0.15163001565686596
784.491805734232,0.16096111515490794
785.4683478319957,0.16417924704468415
786.762670670625,0.16190891274500246
787.738966562116,0.15508200712751527
789.0362059614799,0.15803499657563994
790.0090128743202,0.15731150241593675
791.3059252749155,0.15504038894433766
792.2752452872006,0.14118894158085987
793.5750725104922,0.14599536187691747
794.5441482297259,0.14459562956427993
795.5163601610857,0.1482325823899323
796.815719467209,0.1379702573014315
797.7844463565422,0.13498662453961655
798.759547712417,0.12478149535328778
800.0519610914278,0.12130611266065482
801.02681678566,0.12158635939466603
801.9950904776313,0.11843041216949031
803.2902769744885,0.11063279472098107
804.2615445014358,0.10753961255651567
805.2391812455754,0.10025137195316264
806.530664249121,0.10267900221418946
807.5015819965096,0.10859936901777088
808.4723949516517,0.11000533970570842
809.7666492443498,0.10342697235935312
810.737217750234,0.09152960376627477
812.0311461721346,0.09117036746217387
812.9982360811678,0.09514354483202886
814.2950729952383,0.09423962569344722
815.2619194537453,0.09816115958838827
816.5551969682581,0.09536853565362904
817.5282656407389,0.09955009365114012
818.4979967354391,0.09339974321399135
819.7908088198891,0.08846735153884179
820.757064423988,0.08032999888163013
821.7264472657051,0.0843978377747109
823.0220257372041,0.08237593025153556
823.987934032858,0.07680891954834947
824.9569684608347,0.07167366703721884
826.2488518316277,0.07435584940911999
827.217642481736,0.07562877174066579
828.1863286837805,0.07569331448786702
829.4809761562029,0.07403871489543781
830.4494183637663,0.07210781824166577
831.414528560271,0.0709264271332567
832.705483753938,0.07233704669796788
833.6768052102071,0.06524165742464409
834.9642089705079,0.06325817916407465
836.2546540930716,0.06537248267356224
837.2223662604802,0.06634546361631614
838.5124869497197,0.06344638662019288
839.483180560004,0.05717691882280461
840.4505448664934,0.05628527884890651
841.7369779171947,0.056220296493210774
842.7073229871554,0.05388347137473531
843.9934327119585,0.05069273029056992
844.963533915371,0.05444443252418892
845.9303078786808,0.05397914756172049
847.215955920749,0.054291485539029655
848.1857089028265,0.05363532821869182
849.4742550495623,0.05144304561092841
850.4373224657287,0.048450553538461553
851.4099478538355,0.04002478570760297
852.6948111444517,0.039992025895667714
853.6607526016406,0.04427724596087506
854.6233707856679,0.04179423697859103
855.9109928108876,0.03458357093504231
856.8765880543397,0.03212312099924311
858.1671047253672,0.028259448993456112
859.1356748088061,0.02807993362584513
860.0977056644107,0.029482717675817404
861.3845421137698,0.02857350870128227
862.3463317715385,0.025907888065730893
863.3112344534903,0.022080329004610294
864.5976098679419,0.023003569840154534
865.5622703293894,0.025541669902483403
866.5300420253764,0.02670211984542189
867.8159557304002,0.028021914223169464
868.780269974964,0.03280747911752707
870.065860953935,0.04429752489394369
871.0299331995215,0.04439564503158723
872.3152015739194,0.04132161843552277
873.2790319116151,0.031198577633731482
874.2427586023668,0.03488712423814863
875.5243545340708,0.03942150895458974
876.491051236597,0.046159009533567615
877.7723256641793,0.04809641655731103
878.7387798741371,0.0505948544648339
880.0197329185595,0.05398663996738376
880.9827348937085,0.06461296214117337
882.2665765093518,0.05980762040524572
883.232546007828,0.05450671412629249
884.5160652172691,0.06094882277234889
885.4753757041734,0.06469201294055096
886.4377913242639,0.06417502065908347
887.7240586997254,0.06781527959670598
888.6862326905191,0.06607933224313944
889.648303301424,0.065525139722847
890.9276970606178,0.0578373282464714
891.895938712962,0.05980039877483246
892.854458919162,0.055904305934438764
894.136599729941,0.05178563383743828
895.0948800572859,0.048150497497794195
896.0594666733602,0.037981230416647575
897.3411485113191,0.04167703832816918
898.3022894525501,0.04294724909303542
899.2601238926793,0.043512059309749745
900.5413474628288,0.04256738089857016
901.502144767791,0.041683861269966115
902.7830473757953,0.040956224316532834
903.7436040043741,0.04008858165911584
905.0273869955498,0.0348774616541983
905.9877026945408,0.03006733185396654
907.2679632818879,0.028074858244679705
908.2280384854242,0.026538630822376775
909.1880106471397,0.02438049545130231
910.4678132708123,0.03141845138403395
911.4275450661013,0.028849856574250793
912.3871738748448,0.02881704056760103
913.6665187805285,0.0312250302805876
914.6259073517843,0.03611348924817758
915.90173466747,0.03483116112152092
916.8608834344503,0.029111992893332078
917.8231259562484,0.022704780229263432
919.0984971143342,0.020006769845997467
920.0573029699652,0.0163999843499234
921.0192014928265,0.01393449434497615
922.2973117857535,0.006219719530601767
923.2525798660547,0.00822784164335102
924.5303708226818,0.017131038806441835
925.4917880568552,0.013092840635589395
926.7692588836709,0.009153603828672837
927.7240490526201,0.005755452708801986
928.6851227302789,0.007591232873556416
929.9621370893643,0.008453583320442411
930.9165861126064,0.011115502904823467
931.8773164178671,0.010629414172801166
933.153874553837,0.013313486819243369
934.1079826141768,0.0206252496087067
935.0683697310284,0.03018483193555076
936.3412818602786,0.026073319628931165
937.3014288546467,0.024047590875104104
938.5772119722183,0.027192011352135042
939.5307408147861,0.03320704281494183
940.8093939010951,0.03447657180327926
941.7626843955251,0.02832241165686715
943.0378302478234,0.02214216551560013
943.9940701198689,0.02890519305690002
944.9565814728943,0.029501287051019637
946.2280846954048,0.026140090057075963
947.183982873484,0.023928188253440945
948.4551688357574,0.02167971101805613
949.4140138780871,0.02252795895302844
950.3695708863952,0.01817164582170519
951.6434877431506,0.011099364212404114
952.5988060412813,0.01047457907939691
953.5508381789027,0.013632435573824774
954.8274843548268,0.012600870076593045
955.7824617935557,0.012150153515469473
956.7373370100393,0.012553236395053097
958.0103449813304,0.010052732155056534
958.9649817430557,0.011853204324730712
960.237671834217,0.01063422784269515
961.1888890721635,0.01297114694514593
962.4644425605802,0.012045735830563386
963.4186026806761,0.007224306952702567
964.6906573686763,0.005256833198273544
965.6445793018117,0.006435986927554571
966.5952199520278,0.007099563924187618
967.8731790775273,0.013006788174167857
968.8267605582407,0.01218866535316045
970.091687905924,0.01243309798011487
971.0482097395493,0.015859090936463337
972.3191762715111,0.01778167259104674
973.2722822403854,0.01515188811990743
974.5397552588637,0.027495715355808935
975.4957998330135,0.03535693436441788
976.4485661257409,0.02676725853674972
977.7187627250797,0.024526324109596202
978.6712913525378,0.017533034676736114
979.6237181506733,0.016762583624423524
980.8902880408281,0.019338136964395052
981.8424776399771,0.022598970774404866
983.1150788012334,0.03154549917796991
984.0670306116982,0.024451971827953035
985.3329688862462,0.027319604954100005
986.2878558876902,0.024977031122078566
987.2426405112218,0.022176195167405186
988.5049560485196,0.030190311650354865
989.4595029874965,0.03376873292060996
990.4139476032427,0.03468598280322783
991.678983938528,0.036041692855485766
992.6300207042113,0.03313743307392586
993.8947421964203,0.03042935322998888
