Chart Recorder Data File Tue, Sep 10, 2024 12:39 PM
Time (s)	CH1 (V)  
12:32:43.041	-0.000134
12:32:43.941	-0.000075
12:32:44.241	-0.000045
12:32:44.541	-0.000004
12:32:44.941	-0.000024
12:32:45.241	-0.000090
12:32:45.542	-0.000054
12:32:45.941	-0.000000
12:32:46.241	-0.000081
12:32:46.641	0.000010
12:32:46.941	0.000049
12:32:47.242	0.000007
12:32:47.641	0.000020
12:32:47.941	-0.000033
12:32:48.341	-0.000031
12:32:48.641	-0.000045
12:32:49.041	0.000008
12:32:49.341	0.000012
12:32:49.741	-0.000094
12:32:50.041	0.000004
12:32:50.441	-0.000016
12:32:50.741	0.000061
12:32:51.141	0.000008
12:32:51.442	-0.000104
12:32:51.741	-0.000078
12:32:52.142	0.000007
12:32:52.442	-0.000028
12:32:52.841	0.000021
12:32:53.142	0.000014
12:32:53.542	-0.000037
12:32:53.842	-0.000037
12:32:54.242	-0.000043
12:32:54.541	-0.000055
12:32:54.841	-0.000029
12:32:55.242	-0.000035
12:32:55.542	-0.000044
12:32:55.841	-0.000051
12:32:56.241	-0.000072
12:32:56.541	-0.000047
12:32:56.941	-0.000041
12:32:57.242	-0.000022
12:32:57.642	-0.000078
12:32:57.941	-0.000029
12:32:58.342	-0.000070
12:32:58.641	-0.000035
12:32:59.041	-0.000011
12:32:59.341	0.000009
12:32:59.742	-0.000099
12:33:00.041	-0.000036
12:33:00.442	-0.000046
12:33:00.742	-0.000071
12:33:01.142	-0.000046
12:33:01.441	-0.000002
12:33:01.742	-0.000004
12:33:02.141	0.000038
12:33:02.441	-0.000073
12:33:02.741	-0.000040
12:33:03.141	-0.000058
12:33:03.441	-0.000094
12:33:03.842	-0.000046
12:33:04.141	0.000071
12:33:04.542	0.000022
12:33:04.841	-0.000108
12:33:05.242	-0.000053
12:33:05.542	-0.000025
12:33:05.842	-0.000079
12:33:06.241	-0.000014
12:33:06.541	-0.000037
12:33:06.841	-0.000079
12:33:07.242	-0.000086
12:33:07.542	-0.000093
12:33:07.942	-0.000082
12:33:08.241	-0.000044
12:33:08.541	0.000034
12:33:08.942	0.000000
12:33:09.242	0.000025
12:33:09.541	-0.000031
12:33:09.941	-0.000077
12:33:10.241	-0.000077
12:33:10.542	-0.000041
12:33:10.941	-0.000002
12:33:11.241	-0.000043
12:33:11.641	-0.000117
12:33:11.942	0.000012
12:33:12.342	-0.000012
12:33:12.641	-0.000026
12:33:13.042	0.000010
12:33:13.342	-0.000089
12:33:13.642	-0.000072
12:33:14.042	-0.000070
12:33:14.342	-0.000057
12:33:14.742	-0.000100
12:33:15.042	-0.000108
12:33:15.441	-0.000106
12:33:15.742	-0.000075
12:33:16.042	-0.000094
12:33:16.441	-0.000089
12:33:16.741	-0.000100
12:33:17.142	-0.000104
12:33:17.442	-0.000145
12:33:17.841	-0.000117
12:33:18.142	-0.000103
12:33:18.541	-0.000068
12:33:18.841	-0.000047
12:33:19.242	-0.000005
12:33:19.541	0.000004
12:33:19.842	-0.000067
12:33:20.241	-0.000096
12:33:20.542	-0.000093
12:33:20.842	-0.000117
12:33:21.242	-0.000096
12:33:21.542	-0.000091
12:33:21.942	-0.000070
12:33:22.241	-0.000099
12:33:22.641	-0.000075
12:33:22.941	-0.000121
12:33:23.342	-0.000081
12:33:23.642	-0.000068
12:33:24.042	-0.000129
12:33:24.341	-0.000113
12:33:24.642	-0.000113
12:33:25.041	-0.000171
12:33:25.342	-0.000108
12:33:25.742	-0.000066
12:33:26.041	-0.000040
12:33:26.441	-0.000049
12:33:26.742	-0.000037
12:33:27.042	-0.000000
12:33:27.442	-0.000006
12:33:27.743	-0.000005
12:33:28.042	0.000009
12:33:28.442	-0.000001
12:33:28.742	-0.000094
12:33:29.142	-0.000060
12:33:29.441	-0.000054
12:33:29.742	-0.000055
12:33:30.142	-0.000097
12:33:30.443	-0.000069
12:33:30.742	-0.000049
12:33:31.142	-0.000048
12:33:31.442	-0.000054
12:33:31.842	-0.000031
12:33:32.142	-0.000029
12:33:32.542	-0.000008
12:33:32.842	-0.000038
12:33:33.241	-0.000033
12:33:33.542	-0.000007
12:33:33.842	-0.000074
12:33:34.242	-0.000048
12:33:34.542	-0.000013
12:33:34.941	-0.000095
12:33:35.242	-0.000046
12:33:35.643	0.000043
12:33:35.942	-0.000015
12:33:36.341	-0.000036
12:33:36.642	-0.000018
12:33:37.042	-0.000059
12:33:37.342	-0.000046
12:33:37.742	-0.000078
12:33:38.042	-0.000075
12:33:38.441	-0.000032
12:33:38.742	-0.000059
12:33:39.142	-0.000062
12:33:39.442	0.000012
12:33:39.842	-0.000101
12:33:40.143	-0.000016
12:33:40.542	-0.000041
12:33:40.842	0.000002
12:33:41.241	0.000003
12:33:41.542	0.000007
12:33:41.842	0.000022
12:33:42.241	0.000005
12:33:42.541	-0.000058
12:33:42.942	0.000003
12:33:43.241	-0.000018
12:33:43.642	-0.000069
12:33:43.941	-0.000064
12:33:44.342	-0.000063
12:33:44.641	-0.000044
12:33:45.042	-0.000018
12:33:45.341	0.000039
12:33:45.742	-0.000037
12:33:46.041	-0.000043
12:33:46.442	-0.000018
12:33:46.741	0.000025
12:33:47.142	0.000008
12:33:47.442	-0.000037
12:33:47.841	0.000009
12:33:48.141	0.000046
12:33:48.542	0.000060
12:33:48.842	-0.000001
12:33:49.242	0.000004
12:33:49.542	-0.000013
12:33:49.942	0.000157
12:33:50.341	0.000131
12:33:50.642	0.000077
12:33:50.942	0.000093
12:33:51.342	0.000088
12:33:51.642	0.000112
12:33:52.042	0.000210
12:33:52.341	0.000134
12:33:52.741	0.000086
12:33:53.042	-0.000036
12:33:53.442	0.000061
12:33:53.742	0.000144
12:33:54.142	0.000121
12:33:54.442	0.000064
12:33:54.842	0.000105
12:33:55.142	0.000146
12:33:55.542	0.000050
12:33:55.841	0.000117
12:33:56.242	0.000206
12:33:56.542	0.000174
12:33:56.942	0.000427
12:33:57.242	0.000293
12:33:57.642	0.000471
12:33:57.941	0.000794
12:33:58.342	0.000770
12:33:58.642	0.001055
12:33:58.942	0.000926
12:33:59.342	0.001335
12:33:59.642	0.001993
12:34:00.041	0.006539
12:34:00.342	0.014957
12:34:00.742	0.056803
12:34:01.042	0.097828
12:34:01.442	0.111568
12:34:01.741	0.124014
12:34:02.042	0.101875
12:34:02.441	0.070483
12:34:02.742	0.058715
12:34:03.041	0.021865
12:34:03.441	0.014672
12:34:03.741	0.008576
12:34:04.142	0.003282
12:34:04.442	0.001588
12:34:04.842	0.002799
12:34:05.142	0.002199
12:34:05.542	0.001402
12:34:05.842	0.001064
12:34:06.141	0.000867
12:34:06.542	0.000420
12:34:06.842	0.000308
12:34:07.142	0.000338
12:34:07.542	0.000186
12:34:07.842	0.000099
12:34:08.242	0.000080
12:34:08.541	0.000188
12:34:08.942	0.000169
12:34:09.242	0.000131
12:34:09.642	0.000358
12:34:09.941	0.000665
12:34:10.342	0.000669
12:34:10.642	0.000734
12:34:11.042	0.001504
12:34:11.342	0.000885
12:34:11.741	0.001094
12:34:12.042	0.001146
12:34:12.342	0.000564
12:34:12.742	0.000721
12:34:13.042	0.000858
12:34:13.342	0.000382
12:34:13.742	0.000233
12:34:14.042	0.000142
12:34:14.442	0.000068
12:34:14.742	0.000061
12:34:15.141	0.000031
12:34:15.441	-0.000002
12:34:15.841	-0.000024
12:34:16.142	-0.000066
12:34:16.542	-0.000052
12:34:16.842	-0.000065
12:34:17.142	-0.000088
12:34:17.541	-0.000123
12:34:17.842	-0.000099
12:34:18.142	-0.000120
12:34:18.542	-0.000100
12:34:18.841	-0.000116
12:34:19.143	-0.000076
12:34:19.542	-0.000102
12:34:19.842	-0.000069
12:34:20.242	-0.000145
12:34:20.542	-0.000153
12:34:20.941	-0.000136
12:34:21.242	-0.000106
12:34:21.642	-0.000148
12:34:21.942	-0.000134
12:34:22.342	-0.000133
12:34:22.641	-0.000184
12:34:23.041	-0.000144
12:34:23.341	-0.000113
12:34:23.742	-0.000147
12:34:24.042	-0.000113
12:34:24.342	-0.000074
12:34:24.741	-0.000120
12:34:25.041	-0.000155
12:34:25.442	-0.000161
12:34:25.742	-0.000098
12:34:26.142	-0.000081
12:34:26.442	-0.000088
12:34:26.842	-0.000137
12:34:27.142	-0.000124
12:34:27.442	-0.000099
12:34:27.842	-0.000151
12:34:28.142	-0.000128
12:34:28.443	-0.000131
12:34:28.842	-0.000133
12:34:29.142	-0.000059
12:34:29.542	-0.000049
12:34:29.843	-0.000122
12:34:30.241	-0.000078
12:34:30.542	-0.000138
12:34:30.942	-0.000151
12:34:31.242	-0.000168
12:34:31.642	-0.000115
12:34:31.942	-0.000121
12:34:32.342	-0.000158
12:34:32.642	-0.000216
12:34:33.042	-0.000137
12:34:33.341	-0.000161
12:34:33.642	-0.000146
12:34:34.042	-0.000177
12:34:34.342	-0.000154
12:34:34.742	-0.000159
12:34:35.142	-0.000114
12:34:35.441	-0.000118
12:34:35.842	-0.000166
12:34:36.142	-0.000167
12:34:36.542	-0.000192
12:34:36.842	-0.000197
12:34:37.242	-0.000141
12:34:37.542	-0.000116
12:34:37.942	-0.000152
12:34:38.242	-0.000112
12:34:38.642	-0.000140
12:34:38.942	-0.000134
12:34:39.341	-0.000125
12:34:39.642	-0.000155
12:34:40.041	-0.000168
12:34:40.342	-0.000139
12:34:40.742	-0.000149
12:34:41.042	-0.000167
12:34:41.342	-0.000152
12:34:41.742	-0.000158
12:34:42.042	-0.000146
12:34:42.342	-0.000144
12:34:42.742	-0.000152
12:34:43.042	-0.000192
12:34:43.442	-0.000213
12:34:43.742	-0.000121
12:34:44.142	-0.000194
12:34:44.442	-0.000173
12:34:44.842	-0.000045
12:34:45.142	-0.000176
12:34:45.542	-0.000130
12:34:45.842	-0.000105
12:34:46.242	-0.000145
12:34:46.541	-0.000092
12:34:46.942	-0.000158
12:34:47.242	-0.000177
12:34:47.643	-0.000193
12:34:47.942	-0.000218
12:34:48.242	-0.000165
12:34:48.642	-0.000121
12:34:48.942	-0.000134
12:34:49.342	-0.000143
12:34:49.642	-0.000208
12:34:50.042	-0.000168
12:34:50.342	-0.000174
12:34:50.742	-0.000138
12:34:51.042	-0.000149
12:34:51.441	-0.000167
12:34:51.742	-0.000128
12:34:52.142	-0.000136
12:34:52.442	-0.000139
12:34:52.842	-0.000148
12:34:53.142	-0.000154
12:34:53.542	-0.000178
12:34:53.842	-0.000145
12:34:54.242	-0.000171
12:34:54.542	-0.000164
12:34:54.942	-0.000181
12:34:55.243	-0.000178
12:34:55.542	-0.000143
12:34:55.942	-0.000152
12:34:56.242	-0.000190
12:34:56.541	-0.000119
12:34:56.942	-0.000148
12:34:57.242	-0.000123
12:34:57.642	-0.000136
12:34:57.942	-0.000142
12:34:58.342	-0.000118
12:34:58.642	-0.000119
12:34:59.041	-0.000130
12:34:59.342	-0.000101
12:34:59.642	-0.000105
12:35:00.042	-0.000182
12:35:00.342	-0.000156
12:35:00.742	-0.000185
12:35:01.042	-0.000194
12:35:01.442	-0.000266
12:35:01.742	-0.000154
12:35:02.142	-0.000252
12:35:02.442	-0.000181
12:35:02.842	-0.000179
12:35:03.142	-0.000134
12:35:03.442	-0.000129
12:35:03.842	-0.000176
12:35:04.142	-0.000195
12:35:04.442	-0.000180
12:35:04.842	-0.000097
12:35:05.142	-0.000146
12:35:05.542	-0.000128
12:35:05.842	-0.000178
12:35:06.142	-0.000173
12:35:06.542	-0.000240
12:35:06.842	-0.000190
12:35:07.242	-0.000202
12:35:07.542	-0.000131
12:35:07.842	-0.000111
12:35:08.242	-0.000171
12:35:08.542	-0.000184
12:35:08.942	-0.000135
12:35:09.242	-0.000139
12:35:09.542	-0.000140
12:35:09.943	-0.000131
12:35:10.242	-0.000188
12:35:10.642	-0.000167
12:35:10.942	-0.000136
12:35:11.342	-0.000148
12:35:11.642	-0.000131
12:35:12.042	-0.000129
12:35:12.342	-0.000187
12:35:12.742	-0.000242
12:35:13.042	-0.000186
12:35:13.442	-0.000141
12:35:13.742	-0.000169
12:35:14.142	-0.000183
12:35:14.442	-0.000167
12:35:14.742	-0.000153
12:35:15.142	-0.000130
12:35:15.442	-0.000149
12:35:15.842	-0.000164
12:35:16.142	-0.000151
12:35:16.442	-0.000157
12:35:16.842	-0.000178
12:35:17.142	-0.000166
12:35:17.542	-0.000191
12:35:17.843	-0.000179
12:35:18.243	-0.000118
12:35:18.543	-0.000105
12:35:18.942	-0.000173
12:35:19.242	-0.000162
12:35:19.642	-0.000205
12:35:19.942	-0.000157
12:35:20.342	-0.000156
12:35:20.642	-0.000138
12:35:21.042	-0.000136
12:35:21.343	-0.000166
12:35:21.742	-0.000130
12:35:22.042	-0.000125
12:35:22.442	-0.000168
12:35:22.742	-0.000167
12:35:23.142	-0.000173
12:35:23.442	-0.000124
12:35:23.742	-0.000134
12:35:24.142	-0.000167
12:35:24.442	-0.000151
12:35:24.743	-0.000153
12:35:25.142	-0.000150
12:35:25.442	-0.000141
12:35:25.742	-0.000150
12:35:26.143	-0.000131
12:35:26.442	-0.000098
12:35:26.842	-0.000123
12:35:27.142	-0.000168
12:35:27.542	-0.000168
12:35:27.842	-0.000185
12:35:28.242	-0.000164
12:35:28.542	-0.000155
12:35:28.942	-0.000214
12:35:29.242	-0.000212
12:35:29.542	-0.000159
12:35:29.942	-0.000173
12:35:30.242	-0.000202
12:35:30.543	-0.000164
12:35:30.942	-0.000166
12:35:31.242	-0.000146
12:35:31.542	-0.000135
12:35:31.942	-0.000155
12:35:32.243	-0.000157
12:35:32.542	-0.000123
12:35:32.942	-0.000202
12:35:33.242	-0.000173
12:35:33.642	-0.000209
12:35:33.943	-0.000177
12:35:34.342	-0.000155
12:35:34.643	-0.000170
12:35:35.042	-0.000156
12:35:35.342	-0.000169
12:35:35.742	-0.000203
12:35:36.042	-0.000036
12:35:36.442	-0.000101
12:35:36.742	-0.000102
12:35:37.142	-0.000102
12:35:37.442	-0.000121
12:35:37.743	-0.000117
12:35:38.142	-0.000023
12:35:38.442	-0.000069
12:35:38.742	-0.000108
12:35:39.142	-0.000141
12:35:39.442	-0.000164
12:35:39.843	-0.000113
12:35:40.142	-0.000144
12:35:40.542	-0.000166
12:35:40.843	-0.000087
12:35:41.242	-0.000118
12:35:41.542	-0.000111
12:35:41.843	-0.000116
12:35:42.242	-0.000085
12:35:42.543	-0.000087
12:35:42.842	-0.000057
12:35:43.242	0.000013
12:35:43.542	-0.000173
12:35:43.942	-0.000133
12:35:44.242	-0.000179
12:35:44.542	-0.000170
12:35:44.943	-0.000153
12:35:45.243	-0.000132
12:35:45.542	-0.000094
12:35:45.943	-0.000137
12:35:46.242	-0.000206
12:35:46.543	-0.000188
12:35:46.942	-0.000140
12:35:47.242	-0.000064
12:35:47.643	-0.000162
12:35:47.942	-0.000178
12:35:48.343	-0.000127
12:35:48.643	-0.000077
12:35:49.043	-0.000074
12:35:49.344	-0.000064
12:35:49.743	-0.000138
12:35:50.042	-0.000162
12:35:50.442	-0.000188
12:35:50.742	-0.000081
12:35:51.143	-0.000107
12:35:51.443	-0.000133
12:35:51.742	-0.000117
12:35:52.143	0.000026
12:35:52.442	-0.000147
12:35:52.743	-0.000110
12:35:53.143	-0.000088
12:35:53.442	-0.000005
12:35:53.742	0.000008
12:35:54.142	-0.000086
12:35:54.443	-0.000081
12:35:54.843	-0.000101
12:35:55.243	-0.000073
12:35:55.542	-0.000035
12:35:55.843	-0.000008
12:35:56.242	-0.000074
12:35:56.542	-0.000128
12:35:56.942	-0.000126
12:35:57.243	-0.000149
12:35:57.642	-0.000182
12:35:57.943	-0.000128
12:35:58.343	-0.000130
12:35:58.643	-0.000121
12:35:58.942	-0.000141
12:35:59.342	-0.000117
12:35:59.643	-0.000138
12:35:59.943	-0.000129
12:36:00.342	-0.000157
12:36:00.642	-0.000158
12:36:01.042	-0.000057
12:36:01.342	-0.000061
12:36:01.742	-0.000140
12:36:02.042	-0.000146
12:36:02.443	-0.000089
12:36:02.742	-0.000014
12:36:03.142	-0.000047
12:36:03.442	-0.000138
12:36:03.743	-0.000155
12:36:04.143	-0.000109
12:36:04.442	-0.000135
12:36:04.742	-0.000075
12:36:05.142	-0.000087
12:36:05.442	-0.000056
12:36:05.843	-0.000027
12:36:06.143	-0.000113
12:36:06.543	-0.000117
12:36:06.842	-0.000164
12:36:07.242	-0.000101
12:36:07.543	-0.000130
12:36:07.843	-0.000196
12:36:08.243	-0.000161
12:36:08.542	-0.000165
12:36:08.943	-0.000052
12:36:09.242	-0.000060
12:36:09.643	-0.000011
12:36:09.942	0.000175
12:36:10.343	0.000467
12:36:10.642	0.001888
12:36:11.043	0.035850
12:36:11.343	0.558087
12:36:11.742	0.000000
12:36:15.843	0.000480
12:36:16.143	0.000638
12:36:16.543	0.000511
12:36:16.842	-0.000004
12:36:17.243	0.000363
12:36:17.543	0.000121
12:36:17.942	0.000562
12:36:18.243	0.000268
12:36:18.543	-0.000008
12:36:18.943	-0.000019
12:36:19.243	0.000229
12:36:19.642	0.000226
12:36:19.942	0.000101
12:36:20.343	0.000949
12:36:20.642	0.001303
12:36:20.942	0.001203
12:36:21.343	0.000008
12:36:21.642	0.000009
12:36:22.043	-0.000020
12:36:22.343	0.000445
12:36:22.743	0.002548
12:36:23.042	0.000574
12:36:23.442	0.001013
12:36:23.743	0.000981
12:36:24.042	0.000971
12:36:24.443	0.000427
12:36:24.742	0.000316
12:36:25.043	0.000100
12:36:25.442	0.000427
12:36:25.742	0.000492
12:36:26.043	0.000329
12:36:26.443	0.000467
12:36:26.743	0.000140
12:36:27.144	0.000918
12:36:27.543	0.003137
12:36:27.843	0.001664
12:36:28.243	0.000102
12:36:28.542	0.000588
12:36:28.843	0.000898
12:36:29.243	0.001170
12:36:29.543	0.000436
12:36:29.842	-0.000059
12:36:30.243	0.000437
12:36:30.543	0.001084
12:36:30.943	0.000909
12:36:31.242	0.001636
12:36:31.643	0.000705
12:36:31.943	0.000102
12:36:32.343	0.000642
12:36:32.642	0.000682
12:36:32.942	0.000714
12:36:33.342	0.000524
12:36:33.642	0.000206
12:36:34.043	0.000874
12:36:34.343	0.001077
12:36:34.743	0.001404
12:36:35.042	0.000896
12:36:35.442	0.001101
12:36:35.743	0.000946
12:36:36.042	0.001351
12:36:36.443	0.000285
12:36:36.742	0.000411
12:36:37.142	0.000709
12:36:37.442	0.000026
12:36:37.842	0.000228
12:36:38.143	0.000442
12:36:38.543	0.000389
12:36:38.842	0.000436
12:36:39.143	0.000875
12:36:39.543	-0.000110
12:36:39.842	0.000147
12:36:40.243	-0.000181
12:36:40.542	0.000994
12:36:40.943	0.000751
12:36:41.243	0.000833
12:36:41.643	0.000332
12:36:41.943	-0.000186
12:36:42.343	0.000681
12:36:42.642	0.000637
12:36:42.943	0.000291
12:36:43.343	0.000483
12:36:43.642	0.000241
12:36:44.043	0.000887
12:36:44.342	0.000218
12:36:44.742	0.000072
12:36:45.044	0.000327
12:36:45.443	0.000645
12:36:45.743	0.000551
12:36:46.044	0.000662
12:36:46.443	0.000913
12:36:46.743	0.000570
12:36:47.044	0.000245
12:36:47.443	0.001098
12:36:47.743	0.000611
12:36:48.142	0.000347
12:36:48.442	0.000648
12:36:48.843	0.000471
12:36:49.143	0.000233
12:36:49.543	0.000621
12:36:49.843	-0.000180
12:36:50.242	0.000148
12:36:50.542	0.000405
12:36:50.942	0.000223
12:36:51.242	0.000062
12:36:51.642	0.000361
12:36:51.943	0.000694
12:36:52.243	0.000798
12:36:52.643	0.000496
12:36:52.943	0.000972
12:36:53.342	0.000999
12:36:53.644	0.000169
12:36:53.943	0.000096
12:36:54.342	0.000165
12:36:54.643	0.000194
12:36:55.043	0.000162
12:36:55.343	0.000232
12:36:55.743	-0.000319
12:36:56.042	-0.000205
12:36:56.443	0.000395
12:36:56.742	0.000351
12:36:57.043	0.000251
12:36:57.443	0.000211
12:36:57.742	0.000568
12:36:58.043	0.000586
12:36:58.443	0.000352
12:36:58.742	0.000108
12:36:59.143	-0.000006
12:36:59.444	-0.000042
12:36:59.843	0.000120
12:37:00.143	0.000834
12:37:00.543	0.000182
12:37:00.842	0.000001
12:37:01.244	0.000035
12:37:01.543	-0.000000
12:37:01.943	0.000148
12:37:02.242	0.000272
12:37:02.643	0.000007
12:37:02.942	0.000017
12:37:03.343	0.000559
12:37:03.643	0.001033
12:37:04.043	0.000196
12:37:04.343	0.000053
12:37:04.743	0.000804
12:37:05.042	0.000744
12:37:05.443	0.000598
12:37:05.743	0.000371
12:37:06.143	0.001134
12:37:06.443	0.001397
12:37:06.843	0.000526
12:37:07.143	0.001002
12:37:07.543	0.001250
12:37:07.843	0.000840
12:37:08.143	0.000772
12:37:08.542	0.000960
12:37:08.843	0.001366
12:37:09.242	0.001715
12:37:09.543	0.002831
12:37:09.943	0.002125
12:37:10.243	0.002117
12:37:10.642	0.002466
12:37:10.942	0.004263
12:37:11.243	0.005171
12:37:11.643	0.005928
12:37:11.943	0.010789
12:37:12.343	0.028858
12:37:12.643	0.049123
12:37:13.043	0.167191
12:37:13.343	0.310484
12:37:13.743	0.864303
12:37:14.043	1.355744
12:37:14.442	0.000000
12:37:18.543	0.046903
12:37:18.843	0.053719
12:37:19.243	0.045623
12:37:19.542	0.045147
12:37:19.943	0.045338
12:37:20.243	0.048453
12:37:20.643	0.055230
12:37:20.943	0.058390
12:37:21.343	0.077582
12:37:21.643	0.093509
12:37:22.042	0.150169
12:37:22.343	0.202855
12:37:22.743	0.185496
12:37:23.043	0.193170
12:37:23.442	0.198974
12:37:23.743	0.111566
12:37:24.142	0.074211
12:37:24.442	0.060509
12:37:24.843	0.056705
12:37:25.143	0.052198
12:37:25.543	0.035873
12:37:25.843	0.031489
12:37:26.243	0.027730
12:37:26.543	0.027524
12:37:26.942	0.020264
12:37:27.243	0.014178
12:37:27.643	0.021931
12:37:27.943	0.020078
12:37:28.343	0.016857
12:37:28.643	0.016614
12:37:29.043	0.016537
12:37:29.343	0.017381
12:37:29.743	0.014967
12:37:30.043	0.018108
12:37:30.343	0.015451
12:37:30.743	0.015526
12:37:31.042	0.015061
12:37:31.443	0.015240
12:37:31.743	0.013783
12:37:32.043	0.023269
12:37:32.442	0.020197
12:37:32.843	0.024798
12:37:33.143	0.018981
12:37:33.543	0.017693
12:37:33.843	0.014945
12:37:34.243	0.018812
12:37:34.543	0.016974
12:37:34.943	0.016213
12:37:35.242	0.016635
12:37:35.643	0.015333
12:37:35.942	0.013976
12:37:36.242	0.014596
12:37:36.643	0.012537
12:37:36.943	0.015779
12:37:37.343	0.018141
12:37:37.643	0.016291
12:37:38.043	0.018005
12:37:38.343	0.013935
12:37:38.743	0.014522
12:37:39.043	0.013774
12:37:39.343	0.013303
12:37:39.743	0.017179
12:37:40.043	0.017702
12:37:40.343	0.015035
12:37:40.743	0.014383
12:37:41.043	0.007963
12:37:41.443	0.011426
12:37:41.743	0.011744
12:37:42.143	0.013876
12:37:42.443	0.014258
12:37:42.843	0.013810
12:37:43.143	0.013696
12:37:43.443	0.014527
12:37:43.843	0.013500
12:37:44.143	0.015391
12:37:44.442	0.023308
12:37:44.843	0.012847
12:37:45.142	0.013037
12:37:45.543	0.009685
12:37:45.843	0.011262
12:37:46.243	0.012266
12:37:46.543	0.014684
12:37:46.943	0.015958
12:37:47.242	0.013610
12:37:47.543	0.010361
12:37:47.943	0.010514
12:37:48.243	0.009977
12:37:48.643	0.014742
12:37:48.943	0.017763
12:37:49.343	0.011863
12:37:49.642	0.009977
12:37:50.042	0.012380
12:37:50.343	0.019990
12:37:50.643	0.012077
12:37:51.043	0.009939
12:37:51.343	0.010376
12:37:51.744	0.010140
12:37:52.043	0.009513
12:37:52.443	0.010929
12:37:52.743	0.010422
12:37:53.143	0.013306
12:37:53.442	0.015247
12:37:53.843	0.011302
12:37:54.143	0.014036
12:37:54.543	0.011680
12:37:54.842	0.012487
12:37:55.242	0.008192
12:37:55.544	0.009907
12:37:55.943	0.010640
12:37:56.243	0.012587
12:37:56.643	0.012689
12:37:56.943	0.010317
12:37:57.343	0.028509
12:37:57.643	0.018585
12:37:57.943	0.012935
12:37:58.343	0.015799
12:37:58.643	0.013177
12:37:59.043	0.011455
12:37:59.343	0.010367
12:37:59.743	0.012364
12:38:00.043	0.010977
12:38:00.443	0.009583
12:38:00.743	0.008691
12:38:01.142	0.007421
12:38:01.443	0.007272
12:38:01.843	0.009808
12:38:02.143	0.012633
12:38:02.443	0.013473
12:38:02.843	0.011460
12:38:03.143	0.011917
12:38:03.543	0.013825
12:38:03.843	0.011967
12:38:04.243	0.010755
12:38:04.543	0.012188
12:38:04.943	0.011979
12:38:05.243	0.009064
12:38:05.643	0.009950
12:38:05.943	0.008500
12:38:06.343	0.009937
12:38:06.643	0.010268
12:38:07.043	0.008528
12:38:07.343	0.008232
12:38:07.643	0.006925
12:38:08.043	0.007287
12:38:08.343	0.007096
12:38:08.643	0.008226
12:38:09.043	0.010928
12:38:09.343	0.013515
12:38:09.643	0.012957
12:38:10.043	0.009405
12:38:10.343	0.016068
12:38:10.743	0.018843
12:38:11.043	0.022252
12:38:11.443	0.023332
12:38:11.743	0.016333
12:38:12.143	0.017150
12:38:12.443	0.015585
12:38:12.843	0.020348
12:38:13.143	0.021528
12:38:13.443	0.018547
12:38:13.843	0.022098
12:38:14.143	0.017657
12:38:14.543	0.014452
12:38:14.843	0.021168
12:38:15.243	0.040516
12:38:15.543	0.041142
12:38:15.943	0.041681
12:38:16.243	0.047782
12:38:16.543	0.058848
12:38:16.943	0.054820
12:38:17.243	0.105737
12:38:17.643	0.102701
12:38:17.943	0.098863
12:38:18.343	0.164897
12:38:18.643	0.166565
12:38:19.043	0.120711
12:38:19.343	0.104283
12:38:19.643	0.098485
12:38:20.043	0.087029
12:38:20.344	0.037577
12:38:20.643	0.024928
12:38:21.043	0.018048
12:38:21.343	0.017504
12:38:21.743	0.019965
12:38:22.043	0.021289
12:38:22.443	0.019311
12:38:22.743	0.006209
12:38:23.143	0.006079
12:38:23.444	0.009489
12:38:23.743	0.014816
12:38:24.143	0.016885
12:38:24.443	0.017378
12:38:24.843	0.021945
12:38:25.143	0.030466
12:38:25.543	0.044085
12:38:25.843	0.055133
12:38:26.243	0.105049
12:38:26.543	0.184648
12:38:26.843	0.283441
12:38:27.243	0.333225
12:38:27.544	0.561292
12:38:27.843	0.932858
12:38:28.243	1.555313
12:38:28.543	1.973441
12:38:28.843	2.813523
12:38:30.143	0.827069
12:38:31.443	0.590410
12:38:31.743	0.484268
12:38:32.143	0.357040
12:38:32.443	0.226456
12:38:32.743	0.128229
12:38:33.143	0.096223
12:38:33.443	0.083925
12:38:33.843	0.062817
12:38:34.144	0.045341
12:38:34.543	0.046843
12:38:34.843	0.050347
12:38:35.243	0.036937
12:38:35.543	0.030325
12:38:35.943	0.024765
12:38:36.243	0.023367
12:38:36.544	0.026985
12:38:36.944	0.026911
12:38:37.243	0.024014
12:38:37.644	0.023847
12:38:37.944	0.023112
12:38:38.343	0.024433
12:38:38.643	0.018516
12:38:39.043	0.017102
12:38:39.344	0.020815
12:38:39.644	0.022485
12:38:40.043	0.022658
12:38:40.343	0.016653
12:38:40.743	0.014700
12:38:41.144	0.015799
12:38:41.443	0.020712
12:38:41.744	0.017397
12:38:42.143	0.017673
12:38:42.443	0.021406
12:38:42.743	0.018912
12:38:43.144	0.012331
12:38:43.443	0.016165
12:38:43.743	0.016609
12:38:44.143	0.014376
12:38:44.443	0.011255
12:38:44.744	0.011223
12:38:45.144	0.015139
12:38:45.443	0.016656
12:38:45.743	0.016481
12:38:46.144	0.018035
12:38:46.443	0.013614
12:38:46.743	0.016460
12:38:47.143	0.019533
12:38:47.444	0.014413
12:38:47.843	0.013172
12:38:48.143	0.015806
12:38:48.543	0.016783
12:38:48.843	0.013538
12:38:49.243	0.012140
12:38:49.543	0.011572
12:38:49.843	0.010755
12:38:50.244	0.011866
12:38:50.543	0.012041
12:38:50.943	0.010672
12:38:51.344	0.008753
12:38:51.643	0.009450
12:38:51.943	0.010510
12:38:52.343	0.010675
12:38:52.644	0.010249
12:38:52.944	0.009921
12:38:53.344	0.009926
12:38:53.644	0.009587
12:38:54.043	0.009914
12:38:54.344	0.010698
12:38:54.743	0.010716
12:38:55.044	0.007865
12:38:55.443	0.007579
12:38:55.744	0.012217
12:38:56.043	0.011494
12:38:56.444	0.011589
12:38:56.743	0.013182
12:38:57.143	0.008697
12:38:57.443	0.006052
12:38:57.744	0.005128
12:38:58.143	0.006722
12:38:58.443	0.008937
12:38:58.843	0.008060
12:38:59.143	0.008621
12:38:59.543	0.010342
12:38:59.843	0.007911
12:39:00.244	0.005275
12:39:00.543	0.005007
12:39:00.844	0.007328
12:39:01.243	0.005966
12:39:01.543	0.004726
12:39:01.944	0.005142
12:39:02.244	0.003914
12:39:02.643	0.005824
12:39:02.944	0.007830
12:39:03.344	0.012319
12:39:03.643	0.015135
12:39:03.944	0.010470
12:39:04.345	0.015260
12:39:04.644	0.012331
12:39:04.943	0.016604
12:39:05.343	0.019817
12:39:05.643	0.016424
12:39:05.944	0.007730
12:39:06.343	0.009763
12:39:06.644	0.011044
12:39:06.943	0.012026
12:39:07.344	0.012405
12:39:07.643	0.011848
12:39:08.043	0.012591
12:39:08.343	0.007706
12:39:08.744	0.006916
12:39:09.044	0.007576
12:39:09.444	0.008917
12:39:09.744	0.010717
12:39:10.044	0.008115
12:39:10.444	0.008063
12:39:10.743	0.011553
12:39:11.044	0.015680
12:39:11.443	0.010972
12:39:11.744	0.008246
12:39:12.043	0.011397
12:39:12.444	0.007995
12:39:12.743	0.006042
12:39:13.044	0.005538
12:39:13.444	0.006161
12:39:13.744	0.006069
12:39:14.043	0.004428
12:39:14.444	0.004752
12:39:14.743	0.004532
12:39:15.144	0.005398
12:39:15.444	0.005098
12:39:15.843	0.005081
12:39:16.143	0.005066
12:39:16.543	0.005340
12:39:16.843	0.006463
12:39:17.144	0.006229
12:39:17.543	0.005656