Chart Recorder Data File Tue, Sep 10, 2024 11:30 AM
Time (s)	CH1 (V)  
11:18:17.512	0.001197
11:18:18.312	0.007462
11:18:18.612	0.003906
11:18:19.012	0.016117
11:18:19.313	-0.006766
11:18:19.713	-0.003319
11:18:20.012	-0.005295
11:18:20.412	0.001189
11:18:20.712	-0.004476
11:18:21.113	0.005692
11:18:21.412	-0.017343
11:18:21.813	-0.000663
11:18:22.113	-0.013523
11:18:22.512	-0.010364
11:18:22.813	-0.013931
11:18:23.113	0.003842
11:18:23.513	-0.007772
11:18:23.813	-0.000589
11:18:24.113	0.001366
11:18:24.513	-0.003145
11:18:24.812	-0.001487
11:18:25.212	-0.006142
11:18:25.512	-0.007442
11:18:25.912	0.006557
11:18:26.212	0.001826
11:18:26.613	0.001727
11:18:26.913	-0.003268
11:18:27.313	0.003653
11:18:27.613	0.002992
11:18:28.013	-0.001623
11:18:28.313	-0.012017
11:18:28.713	-0.009635
11:18:29.012	0.001692
11:18:29.313	0.002147
11:18:29.712	0.002802
11:18:30.012	0.003526
11:18:30.313	0.004933
11:18:30.713	0.013154
11:18:31.012	0.003688
11:18:31.412	0.000535
11:18:31.713	-0.004208
11:18:32.112	0.007067
11:18:32.413	-0.002526
11:18:32.812	-0.001330
11:18:33.113	0.013460
11:18:33.413	0.013467
11:18:33.813	-0.004684
11:18:34.113	-0.007971
11:18:34.513	-0.009888
11:18:34.813	-0.002690
11:18:35.213	-0.007582
11:18:35.512	-0.008666
11:18:35.912	0.011483
11:18:36.213	0.007043
11:18:36.612	-0.003567
11:18:36.912	-0.001958
11:18:37.212	-0.006268
11:18:37.613	-0.003129
11:18:37.913	0.007481
11:18:38.313	-0.003475
11:18:38.612	-0.003799
11:18:39.013	-0.001565
11:18:39.312	0.000253
11:18:39.712	0.000929
11:18:40.013	-0.004474
11:18:40.413	-0.004241
11:18:40.712	-0.003196
11:18:41.114	-0.001286
11:18:41.413	0.013641
11:18:41.813	0.007082
11:18:42.113	0.000066
11:18:42.513	0.000326
11:18:42.812	-0.003139
11:18:43.213	0.011033
11:18:43.513	0.011262
11:18:43.912	0.011452
11:18:44.213	0.011159
11:18:44.514	0.011762
11:18:44.912	0.001820
11:18:45.213	-0.002250
11:18:45.513	-0.008360
11:18:45.912	-0.004063
11:18:46.213	0.011451
11:18:46.513	0.001870
11:18:46.913	0.000332
11:18:47.213	0.003311
11:18:47.613	0.002180
11:18:47.912	0.006928
11:18:48.313	0.002499
11:18:48.613	0.002142
11:18:49.012	0.006719
11:18:49.313	0.006329
11:18:49.713	0.005962
11:18:50.013	0.004356
11:18:50.313	-0.013521
11:18:50.713	-0.002677
11:18:51.013	0.007911
11:18:51.413	0.006280
11:18:51.713	-0.003383
11:18:52.113	0.002997
11:18:52.412	-0.000267
11:18:52.813	-0.001366
11:18:53.113	-0.000632
11:18:53.513	0.000099
11:18:53.812	-0.003592
11:18:54.213	-0.002594
11:18:54.513	-0.001151
11:18:54.913	0.002388
11:18:55.213	-0.002479
11:18:55.513	0.011955
11:18:55.913	0.008940
11:18:56.213	0.022806
11:18:56.613	0.004903
11:18:56.913	-0.000760
11:18:57.312	-0.016068
11:18:57.612	0.001164
11:18:58.013	0.003474
11:18:58.313	0.003229
11:18:58.713	-0.001510
11:18:59.013	-0.000737
11:18:59.413	0.004074
11:18:59.713	-0.006583
11:19:00.112	0.000925
11:19:00.412	0.000537
11:19:00.813	0.001936
11:19:01.113	0.003363
11:19:01.513	0.006983
11:19:01.813	0.004596
11:19:02.213	0.009589
11:19:02.513	0.004570
11:19:02.913	-0.007235
11:19:03.213	-0.005624
11:19:03.612	0.010669
11:19:03.913	0.012493
11:19:04.312	0.018658
11:19:04.613	-0.012353
11:19:04.913	0.012321
11:19:05.313	-0.001385
11:19:05.613	-0.006052
11:19:06.013	-0.003128
11:19:06.313	0.022360
11:19:06.712	0.016260
11:19:07.013	0.005333
11:19:07.413	-0.007434
11:19:07.713	-0.000962
11:19:08.113	0.003456
11:19:08.413	-0.001256
11:19:08.813	0.004187
11:19:09.112	0.001006
11:19:09.414	0.004676
11:19:09.812	-0.001755
11:19:10.113	0.005527
11:19:10.513	-0.000013
11:19:10.813	-0.005131
11:19:11.213	-0.004288
11:19:11.513	0.000052
11:19:11.913	-0.001756
11:19:12.212	0.004334
11:19:12.513	0.000908
11:19:12.912	0.006408
11:19:13.213	0.003819
11:19:13.513	0.007242
11:19:13.913	0.006767
11:19:14.212	-0.002664
11:19:14.613	0.005001
11:19:14.913	0.001606
11:19:15.312	0.008837
11:19:15.613	-0.000767
11:19:16.013	0.000753
11:19:16.313	0.005112
11:19:16.713	0.007625
11:19:17.012	-0.002971
11:19:17.413	-0.000701
11:19:17.712	-0.011855
11:19:18.113	0.001544
11:19:18.412	-0.003838
11:19:18.713	0.013045
11:19:19.112	-0.005036
11:19:19.412	-0.005872
11:19:19.813	0.001055
11:19:20.113	-0.000651
11:19:20.513	0.000726
11:19:20.813	0.003280
11:19:21.212	0.010425
11:19:21.512	0.001511
11:19:21.913	0.005164
11:19:22.213	-0.002832
11:19:22.513	0.002846
11:19:22.913	0.004616
11:19:23.213	-0.000162
11:19:23.512	-0.004336
11:19:23.913	0.000561
11:19:24.213	-0.001758
11:19:24.612	-0.000508
11:19:24.913	-0.001379
11:19:25.313	0.009197
11:19:25.613	-0.003810
11:19:26.012	-0.008293
11:19:26.313	-0.001144
11:19:26.613	-0.001962
11:19:27.012	0.008367
11:19:27.313	0.006240
11:19:27.613	-0.009443
11:19:28.012	-0.004899
11:19:28.313	-0.000586
11:19:28.713	0.018855
11:19:29.013	0.003090
11:19:29.413	0.001019
11:19:29.713	0.016742
11:19:30.113	0.005622
11:19:30.412	0.013253
11:19:30.713	-0.018156
11:19:31.113	-0.002243
11:19:31.412	0.005561
11:19:31.813	0.006442
11:19:32.113	0.001299
11:19:32.513	0.001428
11:19:32.813	0.005794
11:19:33.213	0.002212
11:19:33.513	-0.006141
11:19:33.813	-0.004729
11:19:34.213	-0.001554
11:19:34.514	0.000419
11:19:34.913	0.000988
11:19:35.213	0.004293
11:19:35.613	0.001509
11:19:35.913	0.008853
11:19:36.313	0.003393
11:19:36.613	-0.011267
11:19:37.013	0.008090
11:19:37.313	0.006291
11:19:37.613	0.007589
11:19:38.012	0.002320
11:19:38.313	0.006060
11:19:38.713	0.004792
11:19:39.013	0.003794
11:19:39.412	0.004429
11:19:39.713	-0.002369
11:19:40.113	0.003265
11:19:40.413	0.011987
11:19:40.813	-0.004685
11:19:41.113	-0.010335
11:19:41.513	-0.006206
11:19:41.813	0.001066
11:19:42.213	-0.002174
11:19:42.514	-0.008491
11:19:42.913	0.004034
11:19:43.213	-0.005269
11:19:43.612	0.005527
11:19:43.913	0.005068
11:19:44.313	0.000408
11:19:44.613	-0.004847
11:19:44.913	-0.007064
11:19:45.313	-0.002027
11:19:45.613	-0.001138
11:19:46.013	-0.007810
11:19:46.312	0.001454
11:19:46.713	0.004849
11:19:47.013	0.005717
11:19:47.413	-0.006607
11:19:47.713	0.006939
11:19:48.113	0.008465
11:19:48.413	0.016906
11:19:48.813	-0.008514
11:19:49.113	0.002648
11:19:49.513	0.011204
11:19:49.813	0.004009
11:19:50.213	0.002631
11:19:50.513	0.004089
11:19:50.813	0.006923
11:19:51.213	0.007174
11:19:51.513	-0.002219
11:19:51.913	0.002637
11:19:52.213	0.011441
11:19:52.613	0.001947
11:19:52.913	0.007772
11:19:53.313	0.011837
11:19:53.613	0.014075
11:19:54.013	0.016200
11:19:54.313	0.001888
11:19:54.713	0.010880
11:19:55.013	0.006526
11:19:55.413	0.012494
11:19:55.713	0.004020
11:19:56.114	0.006319
11:19:56.413	0.000763
11:19:56.812	-0.001663
11:19:57.113	-0.001381
11:19:57.512	0.015430
11:19:57.813	0.013620
11:19:58.213	-0.000780
11:19:58.513	0.008078
11:19:58.913	0.008551
11:19:59.213	0.008723
11:19:59.513	0.005540
11:19:59.913	0.006153
11:20:00.213	0.010462
11:20:00.613	0.006975
11:20:00.913	0.015797
11:20:01.313	0.003011
11:20:01.613	0.004819
11:20:01.913	-0.003943
11:20:02.313	-0.000932
11:20:02.612	0.001070
11:20:03.013	0.003814
11:20:03.313	0.015560
11:20:03.713	-0.007799
11:20:04.013	0.001035
11:20:04.413	0.019769
11:20:04.713	-0.001899
11:20:05.113	-0.006613
11:20:05.412	-0.009735
11:20:05.813	-0.003478
11:20:06.113	0.008609
11:20:06.513	0.002157
11:20:06.813	0.010821
11:20:07.213	0.010305
11:20:07.513	0.003107
11:20:07.913	0.002542
11:20:08.213	-0.005695
11:20:08.613	0.006475
11:20:08.913	-0.003661
11:20:09.313	-0.013654
11:20:09.613	0.013651
11:20:09.913	0.016985
11:20:10.313	0.011682
11:20:10.613	-0.002911
11:20:11.013	-0.006250
11:20:11.313	-0.006653
11:20:11.713	0.007762
11:20:12.013	0.012044
11:20:12.313	0.014973
11:20:12.713	0.017645
11:20:13.013	0.001121
11:20:13.413	0.010985
11:20:13.713	0.011632
11:20:14.113	0.014598
11:20:14.413	0.007405
11:20:14.813	0.003264
11:20:15.113	0.020970
11:20:15.513	0.027073
11:20:15.813	-0.007018
11:20:16.113	0.013923
11:20:16.513	0.015784
11:20:16.813	0.009622
11:20:17.213	-0.000571
11:20:17.513	-0.008599
11:20:17.912	-0.001108
11:20:18.213	-0.004466
11:20:18.514	0.000605
11:20:18.913	0.013492
11:20:19.213	0.016041
11:20:19.613	0.012461
11:20:19.913	0.018230
11:20:20.313	0.014361
11:20:20.613	0.010721
11:20:21.014	-0.004954
11:20:21.313	0.014167
11:20:21.713	0.015568
11:20:22.013	-0.002396
11:20:22.414	0.007761
11:20:22.713	-0.002808
11:20:23.113	-0.000749
11:20:23.413	-0.003585
11:20:23.813	0.001740
11:20:24.113	0.009345
11:20:24.513	0.004985
11:20:24.813	0.008151
11:20:25.213	0.009819
11:20:25.513	0.014688
11:20:25.913	0.017828
11:20:26.213	0.011885
11:20:26.613	0.012416
11:20:26.913	0.015935
11:20:27.313	0.013540
11:20:27.613	0.001899
11:20:27.913	0.012779
11:20:28.313	-0.004897
11:20:28.613	0.006065
11:20:29.013	0.004413
11:20:29.313	0.004950
11:20:29.713	0.001852
11:20:30.014	0.005507
11:20:30.413	0.000239
11:20:30.713	0.020325
11:20:31.113	0.015079
11:20:31.413	0.019382
11:20:31.814	0.020630
11:20:32.113	0.008480
11:20:32.513	0.011505
11:20:32.813	0.007478
11:20:33.213	0.009568
11:20:33.513	0.013110
11:20:33.913	0.006839
11:20:34.213	0.009514
11:20:34.613	0.011792
11:20:34.913	0.016165
11:20:35.313	0.021217
11:20:35.613	0.011360
11:20:36.013	0.019253
11:20:36.314	0.005960
11:20:36.713	0.013003
11:20:37.013	0.027890
11:20:37.413	0.019241
11:20:37.713	0.029400
11:20:38.113	0.041412
11:20:38.414	0.051712
11:20:38.713	0.082784
11:20:39.113	0.156332
11:20:39.413	0.208260
11:20:39.813	0.215889
11:20:40.113	0.206785
11:20:40.513	0.182825
11:20:40.813	0.136229
11:20:41.213	0.103603
11:20:41.513	0.098963
11:20:41.913	0.085205
11:20:42.213	0.075091
11:20:42.614	0.074690
11:20:42.913	0.057553
11:20:43.313	0.037055
11:20:43.613	0.032952
11:20:44.014	0.030907
11:20:44.314	0.023637
11:20:44.714	0.018602
11:20:45.013	0.022760
11:20:45.413	0.020329
11:20:45.713	0.021022
11:20:46.114	0.005071
11:20:46.413	0.018239
11:20:46.813	0.008770
11:20:47.113	0.016708
11:20:47.513	0.016548
11:20:47.813	0.022751
11:20:48.213	0.016765
11:20:48.513	0.038049
11:20:48.914	0.029988
11:20:49.214	0.032356
11:20:49.613	0.031261
11:20:49.913	0.033301
11:20:50.313	0.021332
11:20:50.614	0.018623
11:20:51.014	0.020728
11:20:51.313	0.027228
11:20:51.714	0.028321
11:20:52.014	0.024925
11:20:52.413	0.024564
11:20:52.714	0.012997
11:20:53.014	0.014182
11:20:53.413	0.027519
11:20:53.713	0.024816
11:20:54.114	0.013054
11:20:54.413	0.015371
11:20:54.813	0.010306
11:20:55.114	0.012093
11:20:55.513	0.004713
11:20:55.814	0.010270
11:20:56.213	0.005499
11:20:56.514	0.005379
11:20:56.914	0.016270
11:20:57.213	0.022763
11:20:57.613	0.006423
11:20:57.914	-0.003215
11:20:58.313	0.001134
11:20:58.614	0.005572
11:20:59.013	0.003637
11:20:59.314	-0.003405
11:20:59.713	0.001142
11:21:00.013	-0.017531
11:21:00.313	-0.002712
11:21:00.714	0.005748
11:21:01.013	0.004103
11:21:01.414	-0.002788
11:21:01.714	-0.008014
11:21:02.113	-0.003053
11:21:02.413	0.004554
11:21:02.814	-0.008463
11:21:03.114	0.003047
11:21:03.513	0.010942
11:21:03.813	-0.000599
11:21:04.213	-0.005491
11:21:04.514	-0.001279
11:21:04.914	-0.006511
11:21:05.214	-0.005816
11:21:05.614	-0.000723
11:21:05.914	0.006497
11:21:06.314	0.003115
11:21:06.613	0.001945
11:21:07.014	-0.009723
11:21:07.313	-0.003781
11:21:07.714	0.007682
11:21:08.014	0.004589
11:21:08.414	0.006542
11:21:08.713	0.001960
11:21:09.114	-0.001738
11:21:09.414	0.003727
11:21:09.813	0.001316
11:21:10.114	-0.004280
11:21:10.514	0.005519
11:21:10.813	-0.006515
11:21:11.214	-0.002629
11:21:11.514	-0.011764
11:21:11.913	-0.003634
11:21:12.213	0.005849
11:21:12.514	0.004830
11:21:12.914	0.001718
11:21:13.214	0.002219
11:21:13.513	0.005960
11:21:13.914	-0.009438
11:21:14.214	-0.002451
11:21:14.614	0.001082
11:21:14.914	-0.002979
11:21:15.313	0.001898
11:21:15.614	0.003774
11:21:16.013	-0.003263
11:21:16.314	-0.005166
11:21:16.714	-0.005691
11:21:17.014	0.008531
11:21:17.414	0.002988
11:21:17.713	0.003952
11:21:18.114	-0.015752
11:21:18.414	-0.035492
11:21:18.813	-0.011941
11:21:19.113	-0.009590
11:21:19.513	-0.003084
11:21:19.814	0.005428
11:21:20.213	-0.003865
11:21:20.513	-0.012456
11:21:20.913	-0.005337
11:21:21.314	-0.010236
11:21:21.613	-0.003877
11:21:22.014	-0.003525
11:21:22.313	-0.000976
11:21:22.713	0.000245
11:21:23.015	-0.002375
11:21:23.413	-0.004160
11:21:23.714	0.003177
11:21:24.113	-0.001052
11:21:24.414	-0.004363
11:21:24.814	-0.004566
11:21:25.114	-0.003780
11:21:25.413	-0.012922
11:21:25.814	-0.012182
11:21:26.114	-0.013560
11:21:26.514	-0.013441
11:21:26.814	-0.001587
11:21:27.213	-0.006706
11:21:27.514	-0.007014
11:21:27.914	-0.004152
11:21:28.214	-0.012090
11:21:28.613	-0.013173
11:21:28.913	0.007056
11:21:29.313	-0.008345
11:21:29.614	-0.012184
11:21:30.014	-0.000901
11:21:30.314	-0.003647
11:21:30.714	-0.006678
11:21:31.014	0.001146
11:21:31.413	-0.000955
11:21:31.713	-0.004859
11:21:32.114	0.002107
11:21:32.413	0.000272
11:21:32.814	-0.008202
11:21:33.114	0.000354
11:21:33.514	-0.002526
11:21:33.813	-0.005319
11:21:34.214	0.005155
11:21:34.514	0.006432
11:21:34.914	-0.000388
11:21:35.214	-0.007880
11:21:35.514	-0.009488
11:21:35.913	-0.007292
11:21:36.214	0.002736
11:21:36.514	0.005409
11:21:36.914	0.002339
11:21:37.214	0.001631
11:21:37.614	-0.002388
11:21:37.913	-0.010660
11:21:38.314	-0.008819
11:21:38.614	-0.010141
11:21:39.014	-0.006668
11:21:39.314	0.002898
11:21:39.614	0.002379
11:21:40.014	-0.001612
11:21:40.314	0.002232
11:21:40.714	0.007796
11:21:41.014	0.006818
11:21:41.414	-0.006662
11:21:41.713	-0.008558
11:21:42.114	-0.004002
11:21:42.413	0.004394
11:21:42.813	-0.005598
11:21:43.113	-0.009713
11:21:43.413	-0.003198
11:21:43.814	-0.000768
11:21:44.114	0.000022
11:21:44.513	0.006128
11:21:44.914	-0.011217
11:21:45.214	-0.007185
11:21:45.614	-0.002033
11:21:45.913	-0.007269
11:21:46.314	-0.002407
11:21:46.614	-0.001933
11:21:47.013	0.005787
11:21:47.313	-0.000279
11:21:47.714	0.001053
11:21:48.014	0.001326
11:21:48.414	-0.011872
11:21:48.713	-0.006587
11:21:49.113	0.002951
11:21:49.413	0.000459
11:21:49.714	-0.002247
11:21:50.114	0.003867
11:21:50.413	0.004431
11:21:50.814	0.007352
11:21:51.114	-0.014235
11:21:51.514	0.004443
11:21:51.814	0.004274
11:21:52.214	-0.001335
11:21:52.514	-0.008197
11:21:52.914	-0.003990
11:21:53.214	0.007937
11:21:53.614	0.003076
11:21:53.914	-0.007420
11:21:54.314	-0.003689
11:21:54.614	-0.007709
11:21:55.013	-0.008965
11:21:55.314	-0.002637
11:21:55.714	0.004586
11:21:56.014	0.000580
11:21:56.413	0.002618
11:21:56.714	0.001000
11:21:57.014	-0.013244
11:21:57.414	-0.016277
11:21:57.713	-0.017250
11:21:58.113	-0.014939
11:21:58.413	-0.010149
11:21:58.814	-0.006531
11:21:59.114	0.002771
11:21:59.514	-0.005363
11:21:59.813	-0.010763
11:22:00.214	-0.002010
11:22:00.514	-0.003395
11:22:00.913	-0.003827
11:22:01.215	-0.004352
11:22:01.514	-0.007340
11:22:01.914	0.000131
11:22:02.213	-0.000540
11:22:02.514	-0.003238
11:22:02.914	0.000679
11:22:03.214	-0.009599
11:22:03.614	-0.009557
11:22:03.915	0.000248
11:22:04.314	0.002181
11:22:04.614	0.001012
11:22:05.014	-0.002866
11:22:05.314	-0.010541
11:22:05.714	-0.009098
11:22:06.013	0.000629
11:22:06.414	-0.002596
11:22:06.713	-0.007493
11:22:07.114	-0.002828
11:22:07.413	-0.002750
11:22:07.814	-0.003270
11:22:08.113	-0.007499
11:22:08.513	-0.004815
11:22:08.813	-0.003851
11:22:09.214	-0.002213
11:22:09.514	-0.001618
11:22:09.914	-0.001035
11:22:10.214	-0.001804
11:22:10.614	-0.001278
11:22:10.914	-0.016322
11:22:11.314	0.002210
11:22:11.614	-0.002187
11:22:12.013	-0.013154
11:22:12.313	-0.009044
11:22:12.713	-0.004450
11:22:13.014	-0.011387
11:22:13.414	-0.006619
11:22:13.714	-0.002568
11:22:14.114	-0.001842
11:22:14.413	-0.008723
11:22:14.814	-0.007528
11:22:15.114	-0.006326
11:22:15.514	0.005424
11:22:15.814	-0.001775
11:22:16.214	-0.002282
11:22:16.514	0.000672
11:22:16.914	0.000439
11:22:17.214	-0.000238
11:22:17.614	-0.004085
11:22:17.914	-0.017512
11:22:18.313	-0.017900
11:22:18.614	0.001145
11:22:18.914	-0.006884
11:22:19.313	0.009946
11:22:19.613	0.003731
11:22:20.013	-0.003335
11:22:20.314	0.009206
11:22:20.614	0.002499
11:22:21.013	-0.001564
11:22:21.414	-0.005116
11:22:21.714	0.000320
11:22:22.114	-0.000196
11:22:22.414	-0.002941
11:22:22.814	-0.008464
11:22:23.114	-0.005595
11:22:23.514	-0.003274
11:22:23.815	-0.002601
11:22:24.214	-0.003366
11:22:24.514	0.010038
11:22:24.914	0.000041
11:22:25.213	-0.003772
11:22:25.614	0.004393
11:22:25.914	-0.002115
11:22:26.313	0.004894
11:22:26.614	-0.002756
11:22:27.013	0.001228
11:22:27.314	0.000886
11:22:27.614	-0.010225
11:22:28.014	-0.003344
11:22:28.314	-0.007004
11:22:28.714	0.001045
11:22:29.014	-0.014297
11:22:29.414	0.001794
11:22:29.714	0.007164
11:22:30.114	-0.001254
11:22:30.414	-0.003849
11:22:30.814	-0.007891
11:22:31.115	-0.009914
11:22:31.514	-0.000877
11:22:31.814	0.008130
11:22:32.214	0.001753
11:22:32.514	-0.000520
11:22:32.814	0.000284
11:22:33.215	-0.005216
11:22:33.514	-0.005466
11:22:33.814	-0.005986
11:22:34.214	-0.005656
11:22:34.514	-0.009874
11:22:34.914	0.000044
11:22:35.314	-0.010142
11:22:35.614	-0.010943
11:22:36.014	0.000050
11:22:36.314	-0.002334
11:22:36.714	0.000881
11:22:37.014	0.001400
11:22:37.413	-0.007689
11:22:37.715	-0.005279
11:22:38.114	0.016544
11:22:38.414	0.012144
11:22:38.814	-0.003306
11:22:39.114	0.001690
11:22:39.514	-0.010182
11:22:39.814	-0.007946
11:22:40.214	-0.002323
11:22:40.514	-0.008415
11:22:40.914	-0.000008
11:22:41.214	-0.019790
11:22:41.614	-0.010343
11:22:41.914	-0.004992
11:22:42.314	-0.016226
11:22:42.614	-0.008554
11:22:43.014	-0.001283
11:22:43.314	-0.004647
11:22:43.714	-0.010118
11:22:44.014	0.005233
11:22:44.414	-0.006731
11:22:44.714	-0.012207
11:22:45.114	0.004992
11:22:45.414	-0.000852
11:22:45.814	0.014996
11:22:46.114	0.005343
11:22:46.514	0.007177
11:22:46.814	0.006912
11:22:47.214	0.016337
11:22:47.514	0.008352
11:22:47.814	0.005884
11:22:48.214	0.008836
11:22:48.514	0.022371
11:22:48.915	0.021465
11:22:49.215	0.032788
11:22:49.614	0.121110
11:22:49.914	0.389585
11:22:50.314	0.877432
11:22:50.614	0.900673
11:22:51.014	0.440728
11:22:51.314	0.224503
11:22:51.713	0.186753
11:22:52.014	0.147635
11:22:52.414	0.103354
11:22:52.714	0.102070
11:22:53.014	0.094946
11:22:53.414	0.046032
11:22:53.714	0.016029
11:22:54.114	0.002831
11:22:54.414	0.006458
11:22:54.814	-0.002794
11:22:55.113	0.005690
11:22:55.513	0.009077
11:22:55.814	-0.000722
11:22:56.214	0.010897
11:22:56.514	0.002495
11:22:56.914	-0.001875
11:22:57.214	-0.013856
11:22:57.614	-0.008170
11:22:57.914	-0.000801
11:22:58.314	-0.010325
11:22:58.614	-0.012605
11:22:59.014	-0.001486
11:22:59.314	-0.001602
11:22:59.714	0.001586
11:23:00.014	-0.003113
11:23:00.414	0.004461
11:23:00.714	0.000881
11:23:01.114	-0.005271
11:23:01.414	-0.002826
11:23:01.814	0.022349
11:23:02.114	0.002920
11:23:02.514	-0.008757
11:23:02.814	-0.002225
11:23:03.214	0.002490
11:23:03.514	-0.002582
11:23:03.914	-0.004537
11:23:04.214	-0.002460
11:23:04.614	0.012636
11:23:04.914	0.011790
11:23:05.314	0.001295
11:23:05.614	0.000225
11:23:06.014	-0.005599
11:23:06.314	-0.009348
11:23:06.714	-0.000284
11:23:07.014	0.001560
11:23:07.414	0.001598
11:23:07.714	0.006136
11:23:08.114	-0.009811
11:23:08.414	-0.006492
11:23:08.814	0.000083
11:23:09.114	0.007132
11:23:09.514	-0.003308
11:23:09.814	-0.001399
11:23:10.214	0.001927
11:23:10.514	0.002532
11:23:10.914	-0.000909
11:23:11.214	0.009361
11:23:11.614	0.004560
11:23:11.914	0.000328
11:23:12.214	-0.004836
11:23:12.615	-0.002202
11:23:12.915	0.000034
11:23:13.314	-0.002157
11:23:13.614	0.011588
11:23:14.014	0.001682
11:23:14.314	0.004257
11:23:14.714	-0.004235
11:23:15.015	-0.000096
11:23:15.414	-0.002352
11:23:15.714	-0.015628
11:23:16.114	-0.007888
11:23:16.415	-0.003812
11:23:16.815	0.009187
11:23:17.114	-0.001048
11:23:17.514	-0.004760
11:23:17.814	0.011209
11:23:18.114	-0.006042
11:23:18.514	-0.008362
11:23:18.814	0.002491
11:23:19.215	-0.003744
11:23:19.514	0.005909
11:23:19.914	0.001866
11:23:20.214	0.004449
11:23:20.614	-0.012229
11:23:20.914	-0.019926
11:23:21.314	-0.001694
11:23:21.615	-0.004457
11:23:22.014	0.009302
11:23:22.314	-0.002621
11:23:22.714	-0.001102
11:23:23.014	-0.003430
11:23:23.414	-0.010140
11:23:23.715	-0.000271
11:23:24.115	0.002341
11:23:24.414	0.001121
11:23:24.815	0.000946
11:23:25.114	0.012570
11:23:25.514	0.002626
11:23:25.814	0.004121
11:23:26.215	-0.003951
11:23:26.514	-0.000465
11:23:26.914	0.002544
11:23:27.214	0.014030
11:23:27.614	0.011385
11:23:27.914	0.001539
11:23:28.315	0.001062
11:23:28.614	0.001811
11:23:29.014	-0.012136
11:23:29.315	0.009242
11:23:29.715	0.009967
11:23:30.014	-0.015972
11:23:30.315	-0.015921
11:23:30.714	-0.013118
11:23:31.015	-0.005524
11:23:31.314	0.002083
11:23:31.715	-0.002193
11:23:32.015	-0.006171
11:23:32.415	0.006310
11:23:32.715	0.006769
11:23:33.114	-0.005346
11:23:33.415	-0.004903
11:23:33.814	-0.008110
11:23:34.114	0.003317
11:23:34.515	-0.000574
11:23:34.814	-0.005626
11:23:35.214	-0.002500
11:23:35.515	-0.004317
11:23:35.914	-0.017443
11:23:36.215	-0.011620
11:23:36.615	0.010189
11:23:36.915	-0.003188
11:23:37.315	-0.007840
11:23:37.615	-0.021630
11:23:38.014	0.000413
11:23:38.314	-0.003304
11:23:38.715	-0.003121
11:23:39.015	-0.000462
11:23:39.415	0.005086
11:23:39.715	-0.011293
11:23:40.115	-0.013216
11:23:40.414	-0.003507
11:23:40.815	-0.007803
11:23:41.115	0.004886
11:23:41.515	-0.003030
11:23:41.815	0.001589
11:23:42.215	0.011439
11:23:42.515	0.013021
11:23:42.914	-0.013330
11:23:43.215	-0.007764
11:23:43.614	-0.006804
11:23:43.915	-0.013398
11:23:44.315	-0.006515
11:23:44.614	-0.015400
11:23:45.015	0.003882
11:23:45.315	0.003878
11:23:45.715	0.003580
11:23:46.015	0.001117
11:23:46.414	-0.004583
11:23:46.714	-0.005759
11:23:47.115	0.000005
11:23:47.415	-0.004328
11:23:47.814	-0.006064
11:23:48.115	-0.007994
11:23:48.515	-0.000783
11:23:48.815	-0.002582
11:23:49.115	0.002680
11:23:49.514	-0.003024
11:23:49.815	-0.002739
11:23:50.215	-0.005312
11:23:50.515	-0.003514
11:23:50.915	0.008561
11:23:51.214	0.005346
11:23:51.615	0.021498
11:23:51.914	0.017234
11:23:52.314	0.048441
11:23:52.615	0.053917
11:23:53.015	0.067795
11:23:53.315	0.063356
11:23:53.715	0.052171
11:23:54.015	0.041882
11:23:54.415	0.031080
11:23:54.715	0.039447
11:23:55.015	0.037024
11:23:55.415	0.034661
11:23:55.815	0.022704
11:23:56.115	0.014013
11:23:56.515	0.019522
11:23:56.814	0.019479
11:23:57.214	0.015057
11:23:57.515	0.019493
11:23:57.915	0.030592
11:23:58.215	0.041045
11:23:58.614	0.039626
11:23:58.914	0.042446
11:23:59.215	0.033643
11:23:59.614	0.069123
11:23:59.915	0.052876
11:24:00.214	0.072421
11:24:00.614	0.114795
11:24:00.915	0.117476
11:24:01.315	0.116627
11:24:01.614	0.118158
11:24:02.015	0.117945
11:24:02.314	0.106653
11:24:02.715	0.070583
11:24:03.015	0.058915
11:24:03.315	0.047789
11:24:03.714	0.055098
11:24:04.014	0.061947
11:24:04.415	0.052564
11:24:04.715	0.040653
11:24:05.115	0.042947
11:24:05.415	0.037687
11:24:05.815	0.055966
11:24:06.114	0.051246
11:24:06.514	0.063252
11:24:06.815	0.050467
11:24:07.214	0.049741
11:24:07.515	0.031430
11:24:07.915	0.036142
11:24:08.215	0.043417
11:24:08.515	0.040681
11:24:08.915	0.047754
11:24:09.214	0.039916
11:24:09.515	0.032381
11:24:09.915	0.040279
11:24:10.214	0.048290
11:24:10.515	0.038838
11:24:10.914	0.054530
11:24:11.215	0.019950
11:24:11.616	0.023469
11:24:11.915	0.035279
11:24:12.314	0.050403
11:24:12.615	0.047958
11:24:13.015	0.034505
11:24:13.315	0.034728
11:24:13.715	0.050492
11:24:14.015	0.033062
11:24:14.415	0.054566
11:24:14.715	0.061870
11:24:15.115	0.029423
11:24:15.415	0.029540
11:24:15.814	0.045546
11:24:16.116	0.040424
11:24:16.415	0.052043
11:24:16.815	0.034232
11:24:17.115	0.042966
11:24:17.514	0.049431
11:24:17.814	0.031710
11:24:18.214	0.051816
11:24:18.515	0.041262
11:24:18.915	0.045948
11:24:19.216	0.043798
11:24:19.614	0.041666
11:24:19.915	0.049253
11:24:20.315	0.050102
11:24:20.615	0.038782
11:24:20.915	0.034433
11:24:21.315	0.050629
11:24:21.714	0.043211
11:24:22.014	0.045791
11:24:22.315	0.048450
11:24:22.715	0.050368
11:24:23.014	0.038733
11:24:23.415	0.043488
11:24:23.714	0.041454
11:24:24.116	0.060201
11:24:24.414	0.050495
11:24:24.815	0.042025
11:24:25.115	0.066761
11:24:25.415	0.049047
11:24:25.814	0.050049
11:24:26.114	0.036724
11:24:26.514	0.050622
11:24:26.815	0.043354
11:24:27.215	0.050346
11:24:27.515	0.045696
11:24:27.914	0.051212
11:24:28.214	0.037071
11:24:28.515	0.032359
11:24:28.915	0.038351
11:24:29.215	0.063060
11:24:29.615	0.032805
11:24:29.914	0.041739
11:24:30.315	0.038291
11:24:30.615	0.037706
11:24:31.015	0.039262
11:24:31.315	0.035491
11:24:31.714	0.042953
11:24:32.015	0.036072
11:24:32.415	0.040944
11:24:32.714	0.045574
11:24:33.114	0.045964
11:24:33.414	0.040065
11:24:33.815	0.032352
11:24:34.114	0.036089
11:24:34.415	0.044133
11:24:34.815	0.051003
11:24:35.114	0.034547
11:24:35.515	0.039048
11:24:35.815	0.045406
11:24:36.214	0.034445
11:24:36.514	0.032955
11:24:36.915	0.046709
11:24:37.215	0.057165
11:24:37.615	0.045242
11:24:37.915	0.037130
11:24:38.315	0.036494
11:24:38.615	0.045338
11:24:39.015	0.044467
11:24:39.315	0.047170
11:24:39.615	0.045213
11:24:40.015	0.033585
11:24:40.315	0.038861
11:24:40.615	0.039916
11:24:41.014	0.041391
11:24:41.315	0.040000
11:24:41.615	0.044082
11:24:42.015	0.035519
11:24:42.315	0.040788
11:24:42.715	0.055976
11:24:43.015	0.048034
11:24:43.415	0.042635
11:24:43.715	0.046974
11:24:44.115	0.054550
11:24:44.415	0.044821
11:24:44.814	0.036462
11:24:45.115	0.047532
11:24:45.515	0.045019
11:24:45.815	0.062114
11:24:46.215	0.047095
11:24:46.515	0.048152
11:24:46.915	0.047966
11:24:47.215	0.053503
11:24:47.615	0.069748
11:24:48.015	0.067638
11:24:48.315	0.062352
11:24:48.714	0.056751
11:24:49.015	0.056941
11:24:49.414	0.054571
11:24:49.715	0.055402
11:24:50.115	0.063051
11:24:50.415	0.051477
11:24:50.815	0.067863
11:24:51.115	0.065064
11:24:51.514	0.063050
11:24:51.814	0.073394
11:24:52.214	0.072632
11:24:52.515	0.072390
11:24:52.915	0.086035
11:24:53.215	0.099522
11:24:53.515	0.093739
11:24:53.916	0.107664
11:24:54.215	0.121360
11:24:54.615	0.128637
11:24:54.915	0.122789
11:24:55.315	0.137277
11:24:55.615	0.138947
11:24:55.916	0.146948
11:24:56.315	0.168444
11:24:56.614	0.187970
11:24:57.015	0.197444
11:24:57.314	0.188762
11:24:57.615	0.183963
11:24:58.015	0.148458
11:24:58.315	0.130243
11:24:58.715	0.124787
11:24:59.015	0.100417
11:24:59.415	0.086440
11:24:59.714	0.084990
11:25:00.115	0.079665
11:25:00.415	0.063686
11:25:00.714	0.066883
11:25:01.115	0.054315
11:25:01.415	0.049336
11:25:01.815	0.047597
11:25:02.115	0.054111
11:25:02.515	0.054290
11:25:02.814	0.067997
11:25:03.214	0.090878
11:25:03.515	0.102861
11:25:03.815	0.123832
11:25:04.215	0.155494
11:25:04.515	0.198572
11:25:04.914	0.214258
11:25:05.215	0.253369
11:25:05.614	0.324708
11:25:05.915	0.437050
11:25:06.315	0.602491
11:25:06.615	0.721689
11:25:07.014	0.962964
11:25:07.315	1.146348
11:25:07.615	1.199792
11:25:08.015	1.067913
11:25:08.315	0.818286
11:25:08.715	0.624941
11:25:09.015	0.536165
11:25:09.415	0.413958
11:25:09.715	0.374882
11:25:10.115	0.305541
11:25:10.415	0.262586
11:25:10.715	0.183766
11:25:11.115	0.140630
11:25:11.415	0.133471
11:25:11.715	0.107997
11:25:12.115	0.091783
11:25:12.415	0.080949
11:25:12.715	0.077318
11:25:13.115	0.067157
11:25:13.415	0.050666
11:25:13.715	0.052063
11:25:14.115	0.070557
11:25:14.415	0.060953
11:25:14.715	0.056760
11:25:15.115	0.083946
11:25:15.415	0.068610
11:25:15.815	0.035890
11:25:16.115	0.052246
11:25:16.515	0.060878
11:25:16.815	0.046918
11:25:17.215	0.055293
11:25:17.515	0.045514
11:25:17.815	0.054935
11:25:18.215	0.051616
11:25:18.515	0.052658
11:25:18.915	0.059166
11:25:19.215	0.046334
11:25:19.615	0.058260
11:25:19.915	0.057891
11:25:20.315	0.056166
11:25:20.615	0.051589
11:25:20.915	0.043207
11:25:21.315	0.053593
11:25:21.615	0.056285
11:25:22.015	0.042431
11:25:22.315	0.051997
11:25:22.715	0.067711
11:25:23.015	0.066499
11:25:23.415	0.036033
11:25:23.715	0.049388
11:25:24.115	0.041126
11:25:24.415	0.038395
11:25:24.715	0.052673
11:25:25.115	0.062771
11:25:25.415	0.067945
11:25:25.715	0.043215
11:25:26.115	0.047266
11:25:26.415	0.049754
11:25:26.715	0.050954
11:25:27.115	0.035519
11:25:27.415	0.041246
11:25:27.715	0.042057
11:25:28.115	0.042042
11:25:28.415	0.035592
11:25:28.715	0.039099
11:25:29.115	0.042112
11:25:29.415	0.041673
11:25:29.815	0.035378
11:25:30.115	0.038791
11:25:30.515	0.045051
11:25:30.815	0.046089
11:25:31.215	0.039354
11:25:31.515	0.055675
11:25:31.815	0.054933
11:25:32.215	0.063221
11:25:32.515	0.056459
11:25:32.815	0.048609
11:25:33.215	0.037552
11:25:33.515	0.044828
11:25:33.815	0.043745
11:25:34.215	0.037319
11:25:34.515	0.033897
11:25:34.915	0.034936
11:25:35.215	0.030324
11:25:35.615	0.032183
11:25:35.915	0.036847
11:25:36.315	0.043478
11:25:36.615	0.048693
11:25:37.015	0.048406
11:25:37.315	0.041314
11:25:37.715	0.033780
11:25:38.015	0.031276
11:25:38.415	0.045203
11:25:38.715	0.046158
11:25:39.015	0.039829
11:25:39.415	0.053362
11:25:39.715	0.044866
11:25:40.115	0.046326
11:25:40.515	0.038542
11:25:40.815	0.040575
11:25:41.216	0.046030
11:25:41.516	0.051470
11:25:41.915	0.052655
11:25:42.215	0.051080
11:25:42.615	0.047040
11:25:42.915	0.035424
11:25:43.315	0.044259
11:25:43.615	0.038057
11:25:44.015	0.044084
11:25:44.315	0.046247
11:25:44.715	0.039821
11:25:45.015	0.035540
11:25:45.415	0.042936
11:25:45.715	0.031297
11:25:46.015	0.033129
11:25:46.415	0.034045
11:25:46.715	0.052557
11:25:47.115	0.059691
11:25:47.415	0.039763
11:25:47.815	0.030128
11:25:48.115	0.034613
11:25:48.515	0.032173
11:25:48.816	0.046761
11:25:49.115	0.057571
11:25:49.516	0.051248
11:25:49.816	0.048646
11:25:50.115	0.033153
11:25:50.516	0.032375
11:25:50.815	0.040424
11:25:51.215	0.048423
11:25:51.515	0.043749
11:25:51.915	0.052546
11:25:52.215	0.056287
11:25:52.616	0.054716
11:25:52.915	0.036183
11:25:53.215	0.038925
11:25:53.616	0.026948
11:25:53.915	0.046609
11:25:54.315	0.033305