Chart Recorder Data File Tue, Sep 10, 2024 11:50 AM
Time (s)	CH1 (V)  
11:36:59.620	0.002629
11:37:00.420	-0.002371
11:37:00.719	-0.002846
11:37:01.119	0.006697
11:37:01.419	0.001324
11:37:01.820	0.002255
11:37:02.119	0.017749
11:37:02.419	0.019971
11:37:02.820	0.001290
11:37:03.120	-0.005618
11:37:03.520	0.006519
11:37:03.819	0.000281
11:37:04.220	0.006351
11:37:04.520	0.000563
11:37:04.920	0.013049
11:37:05.220	0.008442
11:37:05.519	0.004272
11:37:05.920	0.001448
11:37:06.219	0.000852
11:37:06.520	0.008451
11:37:06.920	-0.005237
11:37:07.219	-0.002625
11:37:07.520	0.000374
11:37:07.919	0.003672
11:37:08.220	0.003701
11:37:08.520	0.000399
11:37:08.920	-0.003807
11:37:09.220	-0.002138
11:37:09.520	0.002458
11:37:09.920	-0.007540
11:37:10.220	-0.000788
11:37:10.620	-0.000999
11:37:10.920	-0.000173
11:37:11.319	-0.001101
11:37:11.620	-0.003490
11:37:12.019	-0.006790
11:37:12.320	0.001295
11:37:12.720	0.002055
11:37:13.020	0.006473
11:37:13.420	0.003916
11:37:13.720	0.001198
11:37:14.120	0.009944
11:37:14.420	-0.003095
11:37:14.820	-0.001452
11:37:15.120	-0.005734
11:37:15.520	0.008453
11:37:15.820	0.002346
11:37:16.220	0.000014
11:37:16.520	-0.001588
11:37:16.920	0.007165
11:37:17.219	0.013674
11:37:17.620	-0.004578
11:37:17.920	-0.004201
11:37:18.320	-0.012708
11:37:18.619	0.005475
11:37:19.020	-0.002201
11:37:19.319	0.005583
11:37:19.620	0.007701
11:37:20.020	-0.007687
11:37:20.320	0.007524
11:37:20.620	0.011245
11:37:21.020	-0.002682
11:37:21.320	0.001879
11:37:21.620	0.006428
11:37:22.020	0.005686
11:37:22.321	-0.009373
11:37:22.620	-0.001868
11:37:23.020	-0.002031
11:37:23.320	0.009779
11:37:23.720	0.018268
11:37:24.020	0.002761
11:37:24.420	0.000994
11:37:24.720	0.003740
11:37:25.120	-0.002673
11:37:25.419	0.005479
11:37:25.819	-0.001143
11:37:26.120	0.014972
11:37:26.520	0.009800
11:37:26.820	0.007493
11:37:27.220	0.007738
11:37:27.519	-0.005205
11:37:27.820	-0.009620
11:37:28.220	-0.002274
11:37:28.519	0.007515
11:37:28.820	0.003077
11:37:29.220	0.002577
11:37:29.520	0.006559
11:37:29.821	0.019644
11:37:30.220	0.003570
11:37:30.520	0.001065
11:37:30.920	0.006427
11:37:31.220	0.006503
11:37:31.620	-0.007911
11:37:31.920	-0.017575
11:37:32.320	0.003534
11:37:32.620	-0.000066
11:37:33.021	-0.009584
11:37:33.320	-0.002332
11:37:33.720	0.022656
11:37:34.020	0.011448
11:37:34.420	0.005860
11:37:34.720	0.008657
11:37:35.120	0.004859
11:37:35.420	-0.001160
11:37:35.820	-0.007118
11:37:36.120	0.005965
11:37:36.520	0.009023
11:37:36.820	0.002925
11:37:37.220	0.010678
11:37:37.520	-0.010412
11:37:37.920	0.014494
11:37:38.220	0.010571
11:37:38.520	0.005150
11:37:38.920	-0.000529
11:37:39.220	0.000018
11:37:39.520	0.000078
11:37:39.920	0.009593
11:37:40.220	0.006601
11:37:40.520	0.000058
11:37:40.920	0.011638
11:37:41.220	0.016698
11:37:41.520	0.015847
11:37:41.920	0.012590
11:37:42.220	0.008409
11:37:42.521	0.002444
11:37:42.920	-0.000111
11:37:43.219	0.003892
11:37:43.619	0.007443
11:37:43.920	-0.000009
11:37:44.320	0.001028
11:37:44.620	0.002755
11:37:45.020	0.005399
11:37:45.320	0.004409
11:37:45.620	-0.005061
11:37:46.020	0.004385
11:37:46.320	0.009115
11:37:46.620	0.012400
11:37:47.020	0.007340
11:37:47.320	0.003022
11:37:47.621	0.017620
11:37:48.020	0.008328
11:37:48.320	0.015742
11:37:48.720	-0.003538
11:37:49.020	-0.007024
11:37:49.420	0.006078
11:37:49.720	0.006242
11:37:50.020	0.008729
11:37:50.420	0.001700
11:37:50.720	-0.005087
11:37:51.120	0.016297
11:37:51.420	0.013093
11:37:51.820	0.009373
11:37:52.120	0.007719
11:37:52.520	0.010088
11:37:52.820	0.009152
11:37:53.220	0.007691
11:37:53.520	-0.002055
11:37:53.920	0.003361
11:37:54.220	0.011651
11:37:54.620	0.003488
11:37:54.920	-0.002777
11:37:55.320	0.010517
11:37:55.621	0.013650
11:37:55.920	0.001456
11:37:56.320	-0.006080
11:37:56.620	-0.000435
11:37:57.020	0.015289
11:37:57.320	0.011057
11:37:57.720	0.000155
11:37:58.020	0.011108
11:37:58.420	0.002861
11:37:58.720	-0.000186
11:37:59.120	0.014005
11:37:59.420	0.008424
11:37:59.820	0.004251
11:38:00.120	-0.005492
11:38:00.520	0.004661
11:38:00.820	0.004762
11:38:01.220	0.015169
11:38:01.520	0.010277
11:38:01.820	0.006241
11:38:02.220	-0.004889
11:38:02.520	-0.001819
11:38:02.821	0.004944
11:38:03.220	-0.004732
11:38:03.520	-0.011843
11:38:03.920	0.006177
11:38:04.220	0.005801
11:38:04.620	0.011872
11:38:04.920	0.016631
11:38:05.320	0.009681
11:38:05.620	0.014023
11:38:06.021	0.005657
11:38:06.320	0.001739
11:38:06.720	0.009512
11:38:07.020	0.013948
11:38:07.421	-0.003212
11:38:07.720	0.011168
11:38:08.020	0.002215
11:38:08.420	0.000417
11:38:08.720	0.008447
11:38:09.020	0.010183
11:38:09.420	0.004974
11:38:09.720	0.017234
11:38:10.120	0.008061
11:38:10.420	0.002408
11:38:10.820	0.003135
11:38:11.120	0.001278
11:38:11.521	0.015198
11:38:11.820	0.019142
11:38:12.220	0.018151
11:38:12.520	0.004682
11:38:12.920	0.001509
11:38:13.220	0.001951
11:38:13.620	0.005890
11:38:13.920	0.000510
11:38:14.321	0.010385
11:38:14.620	0.002420
11:38:14.920	-0.000348
11:38:15.321	0.003887
11:38:15.620	0.018056
11:38:16.020	0.016996
11:38:16.321	0.010826
11:38:16.620	0.008650
11:38:17.020	0.003664
11:38:17.320	0.001659
11:38:17.720	-0.003308
11:38:18.020	0.010814
11:38:18.421	-0.008120
11:38:18.721	-0.001235
11:38:19.120	0.013950
11:38:19.420	0.005063
11:38:19.721	0.004037
11:38:20.121	0.002165
11:38:20.420	0.009640
11:38:20.720	0.008438
11:38:21.120	0.013708
11:38:21.420	0.018519
11:38:21.821	0.005953
11:38:22.120	0.002318
11:38:22.521	-0.000893
11:38:22.821	0.007489
11:38:23.221	0.015543
11:38:23.521	0.009516
11:38:23.921	0.009328
11:38:24.220	0.012243
11:38:24.620	0.016772
11:38:24.921	0.004425
11:38:25.320	0.007883
11:38:25.620	0.010151
11:38:26.020	0.012643
11:38:26.321	-0.006409
11:38:26.720	0.002573
11:38:27.020	0.008931
11:38:27.420	0.007536
11:38:27.721	0.010207
11:38:28.021	0.005703
11:38:28.421	-0.003142
11:38:28.720	0.019389
11:38:29.121	0.003371
11:38:29.420	0.012669
11:38:29.721	0.016058
11:38:30.120	0.012661
11:38:30.421	0.009755
11:38:30.820	0.006840
11:38:31.121	0.005096
11:38:31.520	0.023338
11:38:31.820	0.017888
11:38:32.221	0.019435
11:38:32.520	0.022501
11:38:32.820	0.038835
11:38:33.221	0.030074
11:38:33.521	0.045220
11:38:33.822	0.056285
11:38:34.221	0.099994
11:38:34.521	0.127310
11:38:34.921	0.177535
11:38:35.221	0.206013
11:38:35.622	0.193438
11:38:35.921	0.161488
11:38:36.321	0.171107
11:38:36.621	0.126063
11:38:37.021	0.101184
11:38:37.320	0.087941
11:38:37.721	0.065139
11:38:38.021	0.059659
11:38:38.420	0.055528
11:38:38.721	0.044229
11:38:39.120	0.044236
11:38:39.421	0.033399
11:38:39.820	0.026148
11:38:40.121	0.023770
11:38:40.520	0.016263
11:38:40.821	0.019655
11:38:41.120	0.014254
11:38:41.520	0.013588
11:38:41.820	0.010581
11:38:42.121	0.011806
11:38:42.521	0.005607
11:38:42.820	0.012323
11:38:43.221	0.000295
11:38:43.621	0.009725
11:38:43.921	0.027126
11:38:44.321	0.010179
11:38:44.621	0.007623
11:38:45.021	0.004139
11:38:45.321	0.014624
11:38:45.721	0.006535
11:38:46.020	0.015833
11:38:46.421	0.019112
11:38:46.720	0.015507
11:38:47.020	0.007526
11:38:47.420	0.006100
11:38:47.721	0.007927
11:38:48.020	0.003664
11:38:48.421	-0.004155
11:38:48.720	-0.005132
11:38:49.120	0.000289
11:38:49.421	-0.003681
11:38:49.820	-0.012306
11:38:50.121	-0.004692
11:38:50.521	0.007178
11:38:50.821	-0.005390
11:38:51.221	-0.022761
11:38:51.521	-0.010984
11:38:51.920	-0.010137
11:38:52.220	0.007349
11:38:52.621	-0.004573
11:38:52.921	-0.002436
11:38:53.221	-0.009287
11:38:53.621	-0.013487
11:38:53.920	-0.013958
11:38:54.321	-0.004835
11:38:54.621	0.001290
11:38:55.020	0.003691
11:38:55.321	0.005598
11:38:55.721	0.005685
11:38:56.021	-0.005382
11:38:56.320	-0.003843
11:38:56.720	-0.002867
11:38:57.020	-0.012277
11:38:57.420	-0.007841
11:38:57.721	0.004265
11:38:58.121	0.008429
11:38:58.420	-0.002167
11:38:58.821	-0.004525
11:38:59.121	-0.002011
11:38:59.520	-0.002196
11:38:59.821	-0.008792
11:39:00.121	-0.000541
11:39:00.521	0.005731
11:39:00.821	0.013024
11:39:01.221	0.006337
11:39:01.522	-0.001601
11:39:01.921	-0.005990
11:39:02.221	-0.017234
11:39:02.621	-0.010857
11:39:02.921	0.003896
11:39:03.321	0.004791
11:39:03.621	-0.002415
11:39:04.022	0.011795
11:39:04.320	0.008094
11:39:04.721	-0.005539
11:39:05.021	0.012465
11:39:05.420	-0.010938
11:39:05.721	-0.006962
11:39:06.021	-0.011021
11:39:06.421	0.001386
11:39:06.721	-0.002810
11:39:07.021	-0.000434
11:39:07.420	0.000941
11:39:07.721	-0.011834
11:39:08.121	-0.009430
11:39:08.421	-0.000328
11:39:08.820	0.008611
11:39:09.121	0.008206
11:39:09.420	0.007236
11:39:09.821	0.012453
11:39:10.120	0.005893
11:39:10.520	0.003058
11:39:10.821	0.011905
11:39:11.121	-0.011555
11:39:11.521	0.007798
11:39:11.821	0.004779
11:39:12.221	0.003654
11:39:12.521	0.011191
11:39:12.921	-0.003225
11:39:13.221	-0.007070
11:39:13.621	-0.000139
11:39:13.920	-0.004754
11:39:14.221	-0.003725
11:39:14.621	-0.001359
11:39:14.921	0.010298
11:39:15.321	0.001708
11:39:15.621	-0.002687
11:39:16.021	-0.009577
11:39:16.321	-0.005790
11:39:16.721	0.003821
11:39:17.021	-0.005458
11:39:17.421	0.003689
11:39:17.721	0.004598
11:39:18.121	0.001243
11:39:18.421	-0.007735
11:39:18.821	-0.005663
11:39:19.121	0.002231
11:39:19.520	-0.009196
11:39:19.822	0.007621
11:39:20.120	-0.000238
11:39:20.521	0.000785
11:39:20.820	-0.003526
11:39:21.221	0.009220
11:39:21.521	0.003807
11:39:21.920	0.003559
11:39:22.221	0.002558
11:39:22.620	-0.004584
11:39:22.921	-0.001086
11:39:23.321	0.004188
11:39:23.620	-0.002915
11:39:24.021	-0.007604
11:39:24.320	-0.002531
11:39:24.720	0.008760
11:39:25.022	0.008261
11:39:25.420	0.006654
11:39:25.720	0.002560
11:39:26.121	-0.000506
11:39:26.421	0.006158
11:39:26.821	0.005411
11:39:27.120	0.006170
11:39:27.420	0.002290
11:39:27.820	0.004401
11:39:28.121	0.006085
11:39:28.521	-0.005689
11:39:28.821	-0.009829
11:39:29.221	0.010788
11:39:29.521	-0.005167
11:39:29.921	0.008161
11:39:30.221	-0.003908
11:39:30.620	-0.006093
11:39:30.920	-0.009367
11:39:31.321	0.001516
11:39:31.621	0.017498
11:39:32.021	0.011214
11:39:32.321	0.000422
11:39:32.721	0.002670
11:39:33.021	0.007860
11:39:33.421	0.005727
11:39:33.721	-0.024719
11:39:34.121	-0.004635
11:39:34.420	0.008295
11:39:34.821	-0.002466
11:39:35.121	-0.001328
11:39:35.421	0.023839
11:39:35.821	0.012245
11:39:36.121	0.015979
11:39:36.520	0.007480
11:39:36.821	0.006661
11:39:37.221	0.004244
11:39:37.521	-0.002859
11:39:37.921	0.003363
11:39:38.221	0.007150
11:39:38.621	0.011973
11:39:38.921	0.006907
11:39:39.321	-0.009472
11:39:39.621	-0.011725
11:39:40.020	0.000078
11:39:40.321	0.001503
11:39:40.621	-0.008890
11:39:41.021	0.001352
11:39:41.321	-0.001537
11:39:41.721	0.001677
11:39:42.021	0.000944
11:39:42.320	0.002404
11:39:42.721	-0.010028
11:39:43.021	0.001426
11:39:43.421	0.003413
11:39:43.721	0.004827
11:39:44.121	0.006809
11:39:44.420	0.006107
11:39:44.820	0.002814
11:39:45.120	0.018104
11:39:45.521	-0.013020
11:39:45.821	-0.003616
11:39:46.220	0.002160
11:39:46.521	0.013189
11:39:46.921	-0.020469
11:39:47.221	-0.007126
11:39:47.621	-0.005471
11:39:47.921	-0.010993
11:39:48.321	-0.005532
11:39:48.621	-0.007879
11:39:49.021	-0.009608
11:39:49.321	-0.007995
11:39:49.620	0.002175
11:39:50.021	0.001290
11:39:50.321	0.012170
11:39:50.721	-0.007518
11:39:51.020	0.002720
11:39:51.321	0.000922
11:39:51.721	0.009626
11:39:52.021	0.007873
11:39:52.321	0.018613
11:39:52.721	0.007881
11:39:53.021	-0.003650
11:39:53.321	-0.006698
11:39:53.721	0.005782
11:39:54.021	0.015758
11:39:54.422	-0.005784
11:39:54.721	-0.020517
11:39:55.121	0.011687
11:39:55.421	-0.001180
11:39:55.821	0.000551
11:39:56.120	0.004971
11:39:56.521	-0.006435
11:39:56.821	-0.001595
11:39:57.221	-0.009146
11:39:57.521	0.006996
11:39:57.920	-0.004248
11:39:58.221	-0.001249
11:39:58.521	0.004458
11:39:58.920	0.007242
11:39:59.221	0.009867
11:39:59.521	0.002532
11:39:59.921	0.004662
11:40:00.221	0.008228
11:40:00.521	0.002101
11:40:00.921	-0.007342
11:40:01.221	0.001089
11:40:01.621	0.004864
11:40:01.921	-0.004675
11:40:02.321	0.007433
11:40:02.621	0.002618
11:40:03.021	0.004088
11:40:03.321	0.015150
11:40:03.721	0.000115
11:40:04.021	-0.008600
11:40:04.421	-0.006495
11:40:04.721	-0.001893
11:40:05.121	0.002187
11:40:05.420	-0.001801
11:40:05.821	-0.005113
11:40:06.121	0.001582
11:40:06.521	0.002339
11:40:06.821	-0.006402
11:40:07.221	-0.012380
11:40:07.521	-0.012262
11:40:07.921	-0.005896
11:40:08.221	0.009729
11:40:08.621	-0.005429
11:40:08.922	-0.022045
11:40:09.321	0.000797
11:40:09.621	-0.002500
11:40:10.021	-0.010538
11:40:10.320	0.009062
11:40:10.721	-0.000466
11:40:11.021	-0.003051
11:40:11.421	-0.003118
11:40:11.721	-0.001569
11:40:12.121	-0.004252
11:40:12.421	-0.003713
11:40:12.722	0.007229
11:40:13.121	-0.010863
11:40:13.421	-0.010730
11:40:13.822	0.001459
11:40:14.121	0.011137
11:40:14.521	-0.002266
11:40:14.821	-0.012657
11:40:15.221	-0.007429
11:40:15.521	0.005860
11:40:15.921	0.007877
11:40:16.221	0.004155
11:40:16.521	-0.002185
11:40:16.921	0.005043
11:40:17.221	0.011419
11:40:17.521	0.008091
11:40:17.921	-0.004062
11:40:18.220	-0.007228
11:40:18.521	-0.003933
11:40:18.921	0.022906
11:40:19.221	-0.002034
11:40:19.621	-0.012011
11:40:19.921	-0.005819
11:40:20.322	0.005928
11:40:20.621	-0.001947
11:40:21.021	0.007812
11:40:21.321	0.010223
11:40:21.721	-0.002062
11:40:22.021	-0.007957
11:40:22.421	-0.010461
11:40:22.721	-0.002506
11:40:23.121	-0.005383
11:40:23.421	-0.005667
11:40:23.821	0.007593
11:40:24.121	-0.000564
11:40:24.521	-0.010023
11:40:24.821	-0.018505
11:40:25.221	-0.016395
11:40:25.521	-0.004583
11:40:25.821	-0.002209
11:40:26.221	0.014497
11:40:26.521	-0.007508
11:40:26.921	-0.013331
11:40:27.221	-0.019178
11:40:27.621	0.005456
11:40:27.921	-0.001352
11:40:28.321	0.002680
11:40:28.621	0.001820
11:40:29.021	0.007388
11:40:29.321	-0.007756
11:40:29.621	-0.001554
11:40:30.021	-0.002654
11:40:30.321	-0.004020
11:40:30.621	-0.002944
11:40:31.021	0.001948
11:40:31.321	0.003436
11:40:31.621	0.015997
11:40:32.021	0.005539
11:40:32.321	0.010382
11:40:32.621	0.000534
11:40:33.021	-0.006356
11:40:33.321	0.004367
11:40:33.721	0.005086
11:40:34.021	0.004148
11:40:34.422	-0.011564
11:40:34.721	-0.002801
11:40:35.121	-0.000632
11:40:35.421	0.002199
11:40:35.821	0.004446
11:40:36.121	0.006803
11:40:36.521	0.001542
11:40:36.821	-0.004186
11:40:37.221	-0.003906
11:40:37.521	-0.001866
11:40:37.921	-0.004551
11:40:38.221	-0.009791
11:40:38.621	0.008532
11:40:38.921	0.007106
11:40:39.321	-0.001548
11:40:39.621	-0.001076
11:40:39.921	0.007195
11:40:40.322	0.001610
11:40:40.621	0.000033
11:40:41.021	0.001805
11:40:41.321	0.004393
11:40:41.721	0.004842
11:40:42.021	0.003363
11:40:42.422	0.012560
11:40:42.721	0.004927
11:40:43.122	0.002854
11:40:43.421	0.006625
11:40:43.821	0.013426
11:40:44.121	0.037090
11:40:44.521	0.049225
11:40:44.821	0.053362
11:40:45.221	0.242294
11:40:45.522	0.753930
11:40:45.821	1.370544
11:40:46.221	1.185920
11:40:46.521	0.466886
11:40:46.821	0.337375
11:40:47.221	0.234193
11:40:47.521	0.160655
11:40:47.921	0.176118
11:40:48.221	0.204858
11:40:48.621	0.068107
11:40:48.921	0.035562
11:40:49.321	0.008518
11:40:49.622	0.002903
11:40:50.021	-0.009371
11:40:50.322	-0.012323
11:40:50.721	-0.008912
11:40:51.022	-0.012524
11:40:51.422	-0.008579
11:40:51.722	0.002453
11:40:52.022	0.008293
11:40:52.421	0.004617
11:40:52.721	-0.000015
11:40:53.021	0.006684
11:40:53.422	0.016463
11:40:53.722	-0.009078
11:40:54.122	0.011870
11:40:54.421	0.011463
11:40:54.822	0.010406
11:40:55.122	-0.003377
11:40:55.522	-0.005275
11:40:55.822	-0.005762
11:40:56.222	0.006212
11:40:56.521	-0.004659
11:40:56.921	0.005073
11:40:57.222	0.003310
11:40:57.621	-0.003623
11:40:57.921	0.007074
11:40:58.321	0.003209
11:40:58.622	-0.005434
11:40:59.022	0.001171
11:40:59.323	0.015922
11:40:59.721	0.005838
11:41:00.022	0.006138
11:41:00.422	-0.003390
11:41:00.721	-0.007079
11:41:01.121	0.001639
11:41:01.421	0.003862
11:41:01.722	0.006938
11:41:02.121	-0.010247
11:41:02.421	0.017976
11:41:02.823	0.010842
11:41:03.121	0.001112
11:41:03.521	-0.013624
11:41:03.822	-0.005929
11:41:04.222	-0.014910
11:41:04.522	-0.011899
11:41:04.821	0.005798
11:41:05.222	0.006843
11:41:05.522	0.003055
11:41:05.922	0.003260
11:41:06.222	0.007758
11:41:06.522	0.007266
11:41:06.922	0.003931
11:41:07.321	-0.001385
11:41:07.621	-0.001344
11:41:07.922	-0.009579
11:41:08.322	-0.012076
11:41:08.623	-0.001929
11:41:09.022	-0.005152
11:41:09.322	-0.013170
11:41:09.721	0.006920
11:41:10.022	0.006991
11:41:10.422	-0.000681
11:41:10.721	0.006443
11:41:11.122	-0.004337
11:41:11.422	0.001196
11:41:11.821	0.009531
11:41:12.121	0.007534
11:41:12.522	-0.003359
11:41:12.821	-0.007726
11:41:13.222	-0.001862
11:41:13.521	-0.005825
11:41:13.921	-0.007296
11:41:14.221	0.000263
11:41:14.621	-0.010854
11:41:14.922	-0.009114
11:41:15.321	0.007967
11:41:15.621	-0.001946
11:41:15.922	0.003652
11:41:16.322	0.006589
11:41:16.621	0.000022
11:41:16.922	-0.007710
11:41:17.323	-0.000495
11:41:17.622	-0.004947
11:41:18.021	0.005070
11:41:18.422	0.010405
11:41:18.721	0.009118
11:41:19.122	-0.008987
11:41:19.421	0.006288
11:41:19.821	-0.005119
11:41:20.122	-0.002095
11:41:20.522	0.001360
11:41:20.822	0.007989
11:41:21.222	-0.007075
11:41:21.521	-0.012160
11:41:21.922	0.002073
11:41:22.221	-0.014978
11:41:22.621	0.004582
11:41:22.921	0.006855
11:41:23.322	0.007068
11:41:23.621	0.005822
11:41:24.022	-0.002218
11:41:24.322	0.002940
11:41:24.721	0.004031
11:41:25.022	0.007489
11:41:25.422	0.011867
11:41:25.722	0.013723
11:41:26.121	-0.007494
11:41:26.422	-0.002453
11:41:26.822	0.000314
11:41:27.123	-0.001865
11:41:27.521	0.002494
11:41:27.821	0.002676
11:41:28.221	0.002799
11:41:28.521	-0.006341
11:41:28.922	-0.014475
11:41:29.222	-0.006186
11:41:29.621	-0.002100
11:41:29.921	0.003884
11:41:30.321	0.017130
11:41:30.621	0.011813
11:41:31.022	-0.004708
11:41:31.321	0.024011
11:41:31.722	0.009121
11:41:32.022	0.012780
11:41:32.322	0.009632
11:41:32.721	0.007967
11:41:33.021	0.004484
11:41:33.421	0.004446
11:41:33.721	-0.000539
11:41:34.021	0.000306
11:41:34.421	0.005503
11:41:34.722	0.001331
11:41:35.122	0.004667
11:41:35.422	0.002775
11:41:35.821	-0.002878
11:41:36.121	-0.002749
11:41:36.522	-0.000832
11:41:36.822	0.004823
11:41:37.222	0.004684
11:41:37.522	0.003868
11:41:37.922	0.010315
11:41:38.222	-0.002626
11:41:38.621	0.006946
11:41:38.922	0.013575
11:41:39.322	0.022479
11:41:39.622	0.019046
11:41:40.021	0.010657
11:41:40.321	-0.000248
11:41:40.722	0.007294
11:41:41.021	0.004162
11:41:41.422	0.012641
11:41:41.721	0.021160
11:41:42.122	0.012228
11:41:42.422	0.010417
11:41:42.821	0.009008
11:41:43.122	0.026250
11:41:43.522	0.017574
11:41:43.822	0.021720
11:41:44.221	0.022662
11:41:44.522	0.025441
11:41:44.922	0.037693
11:41:45.222	0.048493
11:41:45.621	0.045830
11:41:45.921	0.062397
11:41:46.321	0.155730
11:41:46.622	0.263348
11:41:47.022	0.397004
11:41:47.322	0.468666
11:41:47.722	0.632067
11:41:48.022	1.127363
11:41:48.323	1.323855
11:41:48.721	1.231470
11:41:49.022	0.798457
11:41:49.321	0.645404
11:41:49.722	0.500786
11:41:50.021	0.397244
11:41:50.321	0.358956
11:41:50.723	0.313505
11:41:51.022	0.207840
11:41:51.322	0.177863
11:41:51.722	0.118658
11:41:52.022	0.100401
11:41:52.422	0.093939
11:41:52.722	0.096831
11:41:53.122	0.089270
11:41:53.422	0.080710
11:41:53.822	0.078451
11:41:54.122	0.093267
11:41:54.522	0.091766
11:41:54.821	0.112306
11:41:55.222	0.125336
11:41:55.522	0.149114
11:41:55.922	0.159512
11:41:56.221	0.140651
11:41:56.622	0.160594
11:41:56.922	0.175320
11:41:57.322	0.143949
11:41:57.622	0.138967
11:41:58.022	0.115627
11:41:58.322	0.095080
11:41:58.622	0.092741
11:41:59.022	0.080047
11:41:59.322	0.058810
11:41:59.722	0.054880
11:42:00.022	0.043524
11:42:00.422	0.038282
11:42:00.722	0.051350
11:42:01.122	0.056176
11:42:01.422	0.061384
11:42:01.822	0.055485
11:42:02.122	0.058171
11:42:02.422	0.059324
11:42:02.822	0.042420
11:42:03.122	0.040331
11:42:03.522	0.058502
11:42:03.821	0.044859
11:42:04.222	0.055390
11:42:04.522	0.046959
11:42:04.921	0.044203
11:42:05.222	0.036562
11:42:05.622	0.043536
11:42:05.922	0.041591
11:42:06.322	0.038576
11:42:06.622	0.035433
11:42:07.022	0.033116
11:42:07.322	0.040521
11:42:07.722	0.055510
11:42:08.022	0.051920
11:42:08.323	0.052362
11:42:08.722	0.032028
11:42:09.022	0.043977
11:42:09.322	0.072854
11:42:09.722	0.048068
11:42:10.021	0.042038
11:42:10.422	0.048325
11:42:10.722	0.044694
11:42:11.123	0.042284
11:42:11.421	0.047262
11:42:11.821	0.051215
11:42:12.123	0.052487
11:42:12.522	0.061922
11:42:12.821	0.056272
11:42:13.222	0.046274
11:42:13.522	0.057255
11:42:13.922	0.057170
11:42:14.222	0.055963
11:42:14.522	0.066688
11:42:14.922	0.061824
11:42:15.222	0.042492
11:42:15.622	0.058327
11:42:15.922	0.065161
11:42:16.322	0.056124
11:42:16.622	0.049280
11:42:17.022	0.058664
11:42:17.322	0.057390
11:42:17.721	0.046169
11:42:18.022	0.048852
11:42:18.422	0.058653
11:42:18.721	0.059111
11:42:19.122	0.044946
11:42:19.422	0.052741
11:42:19.822	0.046522
11:42:20.122	0.046585
11:42:20.422	0.068009
11:42:20.823	0.056975
11:42:21.122	0.049091
11:42:21.521	0.066049
11:42:21.822	0.050581
11:42:22.222	0.055101
11:42:22.522	0.048607
11:42:22.922	0.064380
11:42:23.222	0.056837
11:42:23.522	0.048494
11:42:23.922	0.041682
11:42:24.222	0.040503
11:42:24.622	0.055844
11:42:25.022	0.053158
11:42:25.322	0.021482
11:42:25.722	0.032032
11:42:26.022	0.034185
11:42:26.422	0.044088
11:42:26.722	0.049842
11:42:27.122	0.041497
11:42:27.422	0.042147
11:42:27.822	0.059456
11:42:28.122	0.040414
11:42:28.522	0.043955
11:42:28.822	0.043364
11:42:29.222	0.038920
11:42:29.522	0.051684
11:42:29.922	0.041038
11:42:30.222	0.033124
11:42:30.622	0.044943
11:42:30.922	0.048832
11:42:31.322	0.046283
11:42:31.622	0.033243
11:42:32.022	0.025093
11:42:32.322	0.033305
11:42:32.722	0.044819
11:42:33.022	0.043349
11:42:33.321	0.050518
11:42:33.722	0.046055
11:42:34.021	0.057259
11:42:34.422	0.055223
11:42:34.722	0.054727
11:42:35.122	0.045391
11:42:35.422	0.043579
11:42:35.821	0.053858
11:42:36.122	0.064656
11:42:36.522	0.060855
11:42:36.822	0.060270
11:42:37.222	0.056852
11:42:37.522	0.053621
11:42:37.922	0.045493
11:42:38.221	0.068596
11:42:38.522	0.057996
11:42:38.922	0.064711
11:42:39.222	0.059408
11:42:39.622	0.047795
11:42:39.922	0.057863
11:42:40.322	0.059975
11:42:40.622	0.049501
11:42:41.022	0.055053
11:42:41.322	0.069816
11:42:41.621	0.062471
11:42:42.022	0.060015
11:42:42.322	0.056462
11:42:42.722	0.051372
11:42:43.022	0.045752
11:42:43.422	0.063781
11:42:43.722	0.073510
11:42:44.122	0.076568
11:42:44.422	0.071530
11:42:44.822	0.072726
11:42:45.122	0.066227
11:42:45.422	0.062731
11:42:45.822	0.069431
11:42:46.122	0.081326
11:42:46.522	0.087402
11:42:46.822	0.096919
11:42:47.222	0.102290
11:42:47.522	0.104946
11:42:47.922	0.119293
11:42:48.222	0.108174
11:42:48.522	0.111204
11:42:48.923	0.119021
11:42:49.222	0.145736
11:42:49.622	0.145132
11:42:49.922	0.155386
11:42:50.322	0.139224
11:42:50.622	0.133382
11:42:51.022	0.183741
11:42:51.323	0.174976
11:42:51.722	0.156245
11:42:52.122	0.191930
11:42:52.422	0.208849
11:42:52.722	0.206105
11:42:53.122	0.202643
11:42:53.422	0.195613
11:42:53.723	0.168506
11:42:54.122	0.153601
11:42:54.422	0.117419
11:42:54.722	0.131313
11:42:55.122	0.124434
11:42:55.422	0.090302
11:42:55.822	0.078223
11:42:56.122	0.075422
11:42:56.522	0.078795
11:42:56.822	0.064862
11:42:57.222	0.052215
11:42:57.522	0.086131
11:42:57.922	0.085340
11:42:58.222	0.088164
11:42:58.622	0.075220
11:42:58.923	0.094561
11:42:59.322	0.118954
11:42:59.622	0.133625
11:43:00.022	0.190717
11:43:00.324	0.222949
11:43:00.722	0.305204
11:43:01.022	0.360620
11:43:01.422	0.461516
11:43:01.722	0.584228
11:43:02.122	0.744480
11:43:02.422	0.868042
11:43:02.722	1.139128
11:43:03.122	1.285975
11:43:03.422	1.122594
11:43:03.822	0.895370
11:43:04.122	0.757138
11:43:04.522	0.548541
11:43:04.822	0.419809
11:43:05.222	0.352302
11:43:05.522	0.311607
11:43:05.922	0.259497
11:43:06.222	0.196598
11:43:06.622	0.154528
11:43:06.922	0.147149
11:43:07.322	0.118119
11:43:07.622	0.101250
11:43:08.022	0.076286
11:43:08.322	0.084692
11:43:08.722	0.077791
11:43:09.023	0.084720
11:43:09.423	0.065358
11:43:09.723	0.059803
11:43:10.122	0.050047
11:43:10.423	0.083016
11:43:10.823	0.081945
11:43:11.123	0.082001
11:43:11.523	0.058871
11:43:11.823	0.053049
11:43:12.222	0.047605
11:43:12.523	0.051903
11:43:12.823	0.055230
11:43:13.223	0.079856
11:43:13.522	0.060490
11:43:13.923	0.057317
11:43:14.223	0.065258
11:43:14.622	0.063869
11:43:14.922	0.034169
11:43:15.322	0.074645
11:43:15.622	0.065199
11:43:16.022	0.045754
11:43:16.323	0.039291
11:43:16.722	0.039159
11:43:17.022	0.038618
11:43:17.323	0.049116
11:43:17.723	0.055773
11:43:18.022	0.045519
11:43:18.423	0.054262
11:43:18.722	0.070380
11:43:19.123	0.045648
11:43:19.423	0.062334
11:43:19.822	0.059342
11:43:20.123	0.068020
11:43:20.522	0.050012
11:43:20.822	0.032125
11:43:21.222	0.015201
11:43:21.522	0.028244
11:43:21.923	0.041722
11:43:22.223	0.046840
11:43:22.622	0.042149
11:43:22.923	0.053943
11:43:23.322	0.042007
11:43:23.623	0.055380
11:43:23.922	0.045940
11:43:24.322	0.045340
11:43:24.622	0.039430
11:43:25.022	0.045719
11:43:25.322	0.059387
11:43:25.723	0.052538
11:43:26.023	0.051978
11:43:26.423	0.045181
11:43:26.723	0.054982
11:43:27.122	0.050626
11:43:27.422	0.032849
11:43:27.823	0.058872
11:43:28.123	0.049587
11:43:28.523	0.045156
11:43:28.822	0.043920
11:43:29.223	0.052927
11:43:29.523	0.050824
11:43:29.923	0.053534
11:43:30.222	0.053154
11:43:30.622	0.047663
11:43:30.923	0.042724
11:43:31.322	0.039891
11:43:31.623	0.045181
11:43:31.922	0.034526
11:43:32.322	0.029307
11:43:32.623	0.055122
11:43:33.023	0.052944
11:43:33.323	0.037389
11:43:33.722	0.026628
11:43:34.023	0.029660
11:43:34.423	0.055863
11:43:34.723	0.048526
11:43:35.122	0.033852
11:43:35.422	0.048019
11:43:35.822	0.039911
11:43:36.122	0.046625
11:43:36.522	0.030628
11:43:36.822	0.033667
11:43:37.222	0.035468
11:43:37.523	0.042413
11:43:37.824	0.039761
11:43:38.222	0.037187
11:43:38.523	0.027264
11:43:38.822	0.043245
11:43:39.222	0.048468
11:43:39.523	0.046636
11:43:39.922	0.031486
11:43:40.223	0.028901
11:43:40.622	0.037824
11:43:40.922	0.046408
11:43:41.323	0.044825
11:43:41.622	0.043157
11:43:42.023	0.038181
11:43:42.322	0.046380
11:43:42.723	0.034916
11:43:43.023	0.040930
11:43:43.422	0.062580
11:43:43.722	0.058701
11:43:44.023	0.069252
11:43:44.422	0.041327
11:43:44.723	0.037850
11:43:45.122	0.050266
11:43:45.423	0.053135
11:43:45.822	0.068886
11:43:46.123	0.035566
11:43:46.522	0.046651
11:43:46.822	0.055482
11:43:47.223	0.045093
11:43:47.522	0.036630
11:43:47.922	0.047806
11:43:48.223	0.063242
11:43:48.622	0.044107
11:43:48.922	0.050661
11:43:49.323	0.049659
11:43:49.622	0.052732
11:43:49.922	0.044529
11:43:50.322	0.033051
11:43:50.623	0.064132
11:43:50.924	0.068790
11:43:51.323	0.062533
11:43:51.622	0.050370
11:43:52.022	0.057410
11:43:52.322	0.039835
11:43:52.723	0.047890
11:43:53.022	0.056201