Chart Recorder Data File Thu, Sep 12, 2024 3:14 PM
Time (s)	CH1 (V)  
15:09:05.202	-0.064616
15:09:06.002	-0.064619
15:09:06.302	-0.064374
15:09:06.602	-0.064464
15:09:07.002	-0.064597
15:09:07.302	-0.064470
15:09:07.702	-0.064302
15:09:08.002	-0.064302
15:09:08.402	-0.064068
15:09:08.702	-0.063993
15:09:09.102	-0.064301
15:09:09.402	-0.064405
15:09:09.802	-0.064306
15:09:10.102	-0.064056
15:09:10.402	-0.064155
15:09:10.802	-0.063844
15:09:11.102	-0.064155
15:09:11.402	-0.063900
15:09:11.802	-0.064020
15:09:12.103	-0.063809
15:09:12.502	-0.064080
15:09:12.802	-0.063929
15:09:13.103	-0.063840
15:09:13.502	-0.064118
15:09:13.802	-0.063741
15:09:14.202	-0.063756
15:09:14.502	-0.063758
15:09:14.902	-0.064066
15:09:15.202	-0.063711
15:09:15.502	-0.063500
15:09:15.903	-0.063823
15:09:16.202	-0.063679
15:09:16.502	-0.063631
15:09:16.903	-0.063244
15:09:17.202	-0.063049
15:09:17.502	-0.062930
15:09:17.902	-0.063244
15:09:18.203	-0.063303
15:09:18.502	-0.063523
15:09:18.902	-0.062928
15:09:19.203	-0.062910
15:09:19.602	-0.063231
15:09:19.902	-0.063280
15:09:20.302	-0.062856
15:09:20.602	-0.062862
15:09:21.002	-0.062886
15:09:21.302	-0.062888
15:09:21.602	-0.062756
15:09:22.002	-0.062827
15:09:22.302	-0.062762
15:09:22.702	-0.062893
15:09:23.002	-0.062320
15:09:23.403	-0.062756
15:09:23.702	-0.062901
15:09:24.102	-0.062263
15:09:24.403	-0.061873
15:09:24.702	-0.061869
15:09:25.102	-0.061950
15:09:25.402	-0.062246
15:09:25.702	-0.061748
15:09:26.102	-0.061969
15:09:26.402	-0.061721
15:09:26.802	-0.061768
15:09:27.102	-0.061808
15:09:27.502	-0.061862
15:09:27.802	-0.061604
15:09:28.203	-0.061483
15:09:28.502	-0.061110
15:09:28.902	-0.061640
15:09:29.202	-0.061554
15:09:29.502	-0.061846
15:09:29.902	-0.061615
15:09:30.202	-0.061848
15:09:30.602	-0.061373
15:09:30.903	-0.061774
15:09:31.302	-0.061532
15:09:31.602	-0.061918
15:09:32.002	-0.060947
15:09:32.303	-0.061101
15:09:32.602	-0.061457
15:09:33.003	-0.061586
15:09:33.303	-0.060832
15:09:33.703	-0.061071
15:09:34.002	-0.060879
15:09:34.303	-0.061220
15:09:34.702	-0.060535
15:09:35.002	-0.060536
15:09:35.402	-0.060328
15:09:35.702	-0.060499
15:09:36.102	-0.060024
15:09:36.402	-0.059757
15:09:36.702	-0.059422
15:09:37.102	-0.059437
15:09:37.402	-0.059236
15:09:37.802	-0.059373
15:09:38.102	-0.059837
15:09:38.502	-0.059704
15:09:38.802	-0.059215
15:09:39.202	-0.059132
15:09:39.502	-0.059051
15:09:39.902	-0.059149
15:09:40.203	-0.058516
15:09:40.602	-0.058867
15:09:40.902	-0.058500
15:09:41.302	-0.058188
15:09:41.602	-0.057849
15:09:41.902	-0.058260
15:09:42.302	-0.057761
15:09:42.602	-0.057707
15:09:42.902	-0.057173
15:09:43.302	-0.056516
15:09:43.602	-0.056286
15:09:44.002	-0.055815
15:09:44.303	-0.054913
15:09:44.603	-0.054364
15:09:45.002	-0.053171
15:09:45.302	-0.049876
15:09:45.602	-0.046115
15:09:46.003	-0.033933
15:09:46.302	-0.011896
15:09:46.602	0.002018
15:09:47.002	0.031692
15:09:47.302	0.058947
15:09:47.603	0.074201
15:09:48.002	0.072425
15:09:48.303	0.060613
15:09:48.603	0.036141
15:09:49.002	0.005479
15:09:49.302	-0.011769
15:09:49.602	-0.034093
15:09:50.002	-0.049527
15:09:50.303	-0.054494
15:09:50.602	-0.061125
15:09:51.002	-0.064086
15:09:51.303	-0.065016
15:09:51.702	-0.065718
15:09:52.002	-0.066166
15:09:52.302	-0.066464
15:09:52.702	-0.067014
15:09:53.003	-0.067425
15:09:53.402	-0.067691
15:09:53.702	-0.067878
15:09:54.002	-0.068134
15:09:54.402	-0.068213
15:09:54.702	-0.068227
15:09:55.102	-0.068479
15:09:55.403	-0.068289
15:09:55.702	-0.068457
15:09:56.102	-0.068517
15:09:56.402	-0.068517
15:09:56.802	-0.068648
15:09:57.102	-0.068477
15:09:57.502	-0.068524
15:09:57.802	-0.068414
15:09:58.202	-0.068643
15:09:58.502	-0.068520
15:09:58.902	-0.068596
15:09:59.202	-0.068645
15:09:59.602	-0.068730
15:09:59.903	-0.068693
15:10:00.302	-0.068656
15:10:00.602	-0.068628
15:10:00.902	-0.068594
15:10:01.302	-0.068563
15:10:01.602	-0.068615
15:10:02.003	-0.068811
15:10:02.303	-0.068749
15:10:02.703	-0.068518
15:10:03.003	-0.068635
15:10:03.402	-0.068534
15:10:03.703	-0.068583
15:10:04.102	-0.068543
15:10:04.402	-0.068644
15:10:04.702	-0.068548
15:10:05.102	-0.068727
15:10:05.402	-0.068710
15:10:05.803	-0.068509
15:10:06.103	-0.068575
15:10:06.503	-0.068416
15:10:06.803	-0.068755
15:10:07.203	-0.068596
15:10:07.503	-0.068594
15:10:07.803	-0.068724
15:10:08.202	-0.068579
15:10:08.503	-0.068488
15:10:08.902	-0.068677
15:10:09.203	-0.068580
15:10:09.602	-0.068665
15:10:09.903	-0.068636
15:10:10.303	-0.068567
15:10:10.602	-0.068561
15:10:11.003	-0.068612
15:10:11.303	-0.068698
15:10:11.702	-0.068541
15:10:12.003	-0.068478
15:10:12.403	-0.068646
15:10:12.702	-0.068545
15:10:13.102	-0.068690
15:10:13.402	-0.068554
15:10:13.802	-0.068569
15:10:14.102	-0.068625
15:10:14.503	-0.068585
15:10:14.803	-0.068557
15:10:15.103	-0.068668
15:10:15.503	-0.068657
15:10:15.802	-0.068697
15:10:16.203	-0.068625
15:10:16.502	-0.068592
15:10:16.803	-0.068651
15:10:17.202	-0.068666
15:10:17.503	-0.068565
15:10:17.903	-0.068359
15:10:18.202	-0.068349
15:10:18.502	-0.068598
15:10:18.902	-0.068438
15:10:19.202	-0.068255
15:10:19.602	-0.068721
15:10:19.902	-0.068453
15:10:20.302	-0.068672
15:10:20.603	-0.068762
15:10:20.903	-0.068699
15:10:21.303	-0.068335
15:10:21.603	-0.068596
15:10:21.903	-0.068460
15:10:22.303	-0.068534
15:10:22.603	-0.068414
15:10:23.002	-0.068502
15:10:23.302	-0.068509
15:10:23.702	-0.068633
15:10:24.003	-0.068290
15:10:24.302	-0.068329
15:10:24.703	-0.068493
15:10:25.003	-0.068435
15:10:25.402	-0.068313
15:10:25.703	-0.068424
15:10:26.003	-0.068376
15:10:26.402	-0.068570
15:10:26.702	-0.068491
15:10:27.102	-0.068465
15:10:27.402	-0.068406
15:10:27.802	-0.068543
15:10:28.103	-0.068329
15:10:28.503	-0.068403
15:10:28.803	-0.068333
15:10:29.103	-0.068488
15:10:29.502	-0.068382
15:10:29.802	-0.068540
15:10:30.103	-0.068646
15:10:30.502	-0.068406
15:10:30.802	-0.068476
15:10:31.203	-0.068276
15:10:31.503	-0.068213
15:10:31.803	-0.068212
15:10:32.203	-0.068311
15:10:32.603	-0.068398
15:10:32.902	-0.068205
15:10:33.202	-0.068313
15:10:33.602	-0.068234
15:10:33.903	-0.068202
15:10:34.303	-0.068110
15:10:34.603	-0.068085
15:10:34.902	-0.068179
15:10:35.303	-0.068245
15:10:35.603	-0.068146
15:10:36.003	-0.068178
15:10:36.302	-0.068292
15:10:36.702	-0.068070
15:10:37.003	-0.068226
15:10:37.403	-0.068160
15:10:37.703	-0.068149
15:10:38.103	-0.067985
15:10:38.403	-0.067854
15:10:38.802	-0.068249
15:10:39.102	-0.068093
15:10:39.503	-0.068026
15:10:39.803	-0.067884
15:10:40.202	-0.067907
15:10:40.503	-0.067884
15:10:40.902	-0.067698
15:10:41.202	-0.067978
15:10:41.603	-0.067801
15:10:41.902	-0.067790
15:10:42.203	-0.067822
15:10:42.603	-0.067658
15:10:42.903	-0.067749
15:10:43.303	-0.067803
15:10:43.603	-0.067763
15:10:43.903	-0.067661
15:10:44.302	-0.067692
15:10:44.602	-0.067668
15:10:45.003	-0.067568
15:10:45.303	-0.067306
15:10:45.703	-0.067319
15:10:46.002	-0.067190
15:10:46.303	-0.067187
15:10:46.702	-0.067087
15:10:47.003	-0.067176
15:10:47.302	-0.067142
15:10:47.702	-0.066992
15:10:48.004	-0.066765
15:10:48.402	-0.066782
15:10:48.703	-0.066568
15:10:49.103	-0.066426
15:10:49.403	-0.065863
15:10:49.803	-0.066163
15:10:50.102	-0.065554
15:10:50.403	-0.063818
15:10:50.802	-0.055906
15:10:51.102	-0.035243
15:10:51.503	0.148117
15:10:51.802	0.465998
15:10:52.103	0.617664
15:10:52.502	0.896281
15:10:52.803	1.084455
15:10:53.102	1.089878
15:10:53.502	0.885381
15:10:53.802	0.609963
15:10:54.103	0.477989
15:10:54.503	0.228898
15:10:54.803	0.058324
15:10:55.103	0.016866
15:10:55.503	-0.028921
15:10:55.802	-0.055775
15:10:56.103	-0.065262
15:10:56.503	-0.065742
15:10:56.803	-0.066153
15:10:57.202	-0.066568
15:10:57.502	-0.066366
15:10:57.903	-0.066631
15:10:58.203	-0.066665
15:10:58.603	-0.066757
15:10:58.902	-0.066712
15:10:59.203	-0.067017
15:10:59.603	-0.067131
15:10:59.902	-0.066827
15:11:00.303	-0.066986
15:11:00.604	-0.067014
15:11:00.903	-0.066869
15:11:01.302	-0.067270
15:11:01.603	-0.067197
15:11:02.002	-0.067123
15:11:02.303	-0.067169
15:11:02.703	-0.067375
15:11:03.003	-0.067442
15:11:03.303	-0.067276
15:11:03.702	-0.067090
15:11:04.002	-0.067474
15:11:04.404	-0.067075
15:11:04.703	-0.067283
15:11:05.103	-0.067406
15:11:05.403	-0.067294
15:11:05.803	-0.067006
15:11:06.102	-0.067021
15:11:06.403	-0.067174
15:11:06.803	-0.067300
15:11:07.103	-0.067308
15:11:07.403	-0.067221
15:11:07.803	-0.067113
15:11:08.103	-0.067122
15:11:08.403	-0.067011
15:11:08.803	-0.067082
15:11:09.103	-0.066937
15:11:09.503	-0.067042
15:11:09.803	-0.066964
15:11:10.103	-0.066875
15:11:10.503	-0.067030
15:11:10.803	-0.067090
15:11:11.203	-0.066900
15:11:11.503	-0.066642
15:11:11.903	-0.066779
15:11:12.202	-0.066747
15:11:12.603	-0.066228
15:11:12.903	-0.065314
15:11:13.202	-0.064289
15:11:13.602	-0.062271
15:11:13.903	-0.059022
15:11:14.203	-0.057827
15:11:14.603	-0.053843
15:11:14.902	-0.051080
15:11:15.203	-0.050491
15:11:15.603	-0.050252
15:11:15.903	-0.050752
15:11:16.302	-0.051714
15:11:16.603	-0.052705
15:11:17.003	-0.053161
15:11:17.303	-0.052640
15:11:17.702	-0.051204
15:11:18.002	-0.048459
15:11:18.302	-0.041777
15:11:18.702	-0.031522
15:11:19.003	-0.022184
15:11:19.302	-0.016611
15:11:19.702	-0.008310
15:11:20.003	-0.002799
15:11:20.303	-0.002680
15:11:20.703	-0.001729
15:11:21.002	-0.001655
15:11:21.403	0.001734
15:11:21.703	0.005905
15:11:22.103	0.034742
15:11:22.403	0.126168
15:11:22.803	0.332927
15:11:23.103	0.472884
15:11:23.403	0.760560
15:11:23.803	1.022869
15:11:24.103	1.130387
15:11:24.403	1.185469
15:11:24.803	1.011754
15:11:25.103	0.882662
15:11:25.403	0.617077
15:11:25.803	0.369779
15:11:26.103	0.266355
15:11:26.403	0.142404
15:11:26.802	0.093440
15:11:27.102	0.081514
15:11:27.402	0.081068
15:11:27.803	0.089864
15:11:28.102	0.097523
15:11:28.403	0.093231
15:11:28.803	0.082807
15:11:29.103	0.061276
15:11:29.403	0.048516
15:11:29.803	0.027433
15:11:30.102	0.006956
15:11:30.503	-0.005037
15:11:30.803	-0.010183
15:11:31.103	-0.016099
15:11:31.502	-0.018457
15:11:31.803	-0.018655
15:11:32.203	-0.019090
15:11:32.503	-0.019424
15:11:32.803	-0.020196
15:11:33.203	-0.021436
15:11:33.502	-0.020907
15:11:33.903	-0.019825
15:11:34.202	-0.020513
15:11:34.503	-0.021030
15:11:34.903	-0.019945
15:11:35.203	-0.019361
15:11:35.603	-0.020333
15:11:35.903	-0.020200
15:11:36.302	-0.019576
15:11:36.602	-0.018409
15:11:36.904	-0.018880
15:11:37.303	-0.019923
15:11:37.602	-0.018062
15:11:38.003	-0.019915
15:11:38.303	-0.020418
15:11:38.603	-0.020883
15:11:39.003	-0.019987
15:11:39.303	-0.019500
15:11:39.603	-0.021094
15:11:40.003	-0.022453
15:11:40.302	-0.022624
15:11:40.703	-0.022540
15:11:41.002	-0.022864
15:11:41.403	-0.024089
15:11:41.703	-0.023360
15:11:42.003	-0.024344
15:11:42.403	-0.022438
15:11:42.703	-0.022156
15:11:43.103	-0.022637
15:11:43.403	-0.023111
15:11:43.803	-0.023761
15:11:44.103	-0.023826
15:11:44.403	-0.023133
15:11:44.803	-0.022649
15:11:45.103	-0.021871
15:11:45.403	-0.021687
15:11:45.803	-0.020908
15:11:46.102	-0.020673
15:11:46.403	-0.020725
15:11:46.803	-0.019519
15:11:47.103	-0.018545
15:11:47.503	-0.017463
15:11:47.803	-0.016694
15:11:48.203	-0.016706
15:11:48.503	-0.016809
15:11:48.903	-0.015366
15:11:49.203	-0.014195
15:11:49.503	-0.014612
15:11:49.903	-0.014438
15:11:50.202	-0.012962
15:11:50.503	-0.013194
15:11:50.903	-0.010742
15:11:51.203	-0.010085
15:11:51.603	-0.006530
15:11:51.903	-0.004084
15:11:52.303	-0.000395
15:11:52.603	0.004670
15:11:53.003	0.010129
15:11:53.303	0.015811
15:11:53.603	0.027022
15:11:54.003	0.041900
15:11:54.303	0.049785
15:11:54.703	0.068530
15:11:55.003	0.088662
15:11:55.303	0.099135
15:11:55.703	0.116004
15:11:56.003	0.128524
15:11:56.403	0.127340
15:11:56.703	0.114362
15:11:57.103	0.102518
15:11:57.402	0.077211
15:11:57.703	0.052652
15:11:58.103	0.031819
15:11:58.403	0.025669
15:11:58.703	0.028921
15:11:59.103	0.051326
15:11:59.403	0.076177
15:11:59.703	0.157519
15:12:00.103	0.293605
15:12:00.403	0.379274
15:12:00.703	0.573773
15:12:01.104	0.725248
15:12:01.403	0.778944
15:12:01.803	0.817664
15:12:02.103	0.740239
15:12:02.403	0.663637
15:12:02.803	0.495566
15:12:03.103	0.332035
15:12:03.403	0.254735
15:12:03.803	0.141267
15:12:04.104	0.070243
15:12:04.503	0.033372
15:12:04.803	0.011654
15:12:05.203	0.002364
15:12:05.503	-0.000392
15:12:05.903	-0.003985
15:12:06.203	-0.008253
15:12:06.503	-0.009466
15:12:06.903	-0.011357
15:12:07.203	-0.012494
15:12:07.503	-0.012600
15:12:07.903	-0.013601
15:12:08.203	-0.015122
15:12:08.503	-0.015534
15:12:08.903	-0.015504
15:12:09.203	-0.015913
15:12:09.503	-0.016645
15:12:09.903	-0.017406
15:12:10.203	-0.018098
15:12:10.504	-0.018117
15:12:10.903	-0.019489
15:12:11.203	-0.020027
15:12:11.504	-0.021120
15:12:11.903	-0.020634
15:12:12.203	-0.020542
15:12:12.603	-0.019717
15:12:12.903	-0.020022
15:12:13.203	-0.019932
15:12:13.603	-0.020030
15:12:13.904	-0.021338
15:12:14.303	-0.021727
15:12:14.603	-0.021442
15:12:14.903	-0.022307
15:12:15.303	-0.023116
15:12:15.603	-0.023412
15:12:15.903	-0.023569