Chart Recorder Data File Thu, Sep 12, 2024 3:56 PM
Time (s)	CH1 (V)  
15:52:14.816	-0.053809
15:52:15.716	-0.055448
15:52:16.016	-0.054445
15:52:16.316	-0.053757
15:52:16.717	-0.056600
15:52:17.016	-0.056178
15:52:17.416	-0.055076
15:52:17.716	-0.055918
15:52:18.016	-0.053744
15:52:18.416	-0.053358
15:52:18.716	-0.054364
15:52:19.116	-0.056809
15:52:19.416	-0.054598
15:52:19.716	-0.056589
15:52:20.116	-0.056108
15:52:20.416	-0.054521
15:52:20.816	-0.054471
15:52:21.116	-0.055309
15:52:21.516	-0.055251
15:52:21.816	-0.055398
15:52:22.116	-0.054046
15:52:22.516	-0.053811
15:52:22.816	-0.054146
15:52:23.216	-0.056204
15:52:23.516	-0.054116
15:52:23.816	-0.053792
15:52:24.216	-0.056026
15:52:24.516	-0.055282
15:52:24.916	-0.054288
15:52:25.216	-0.055498
15:52:25.616	-0.053214
15:52:25.916	-0.051667
15:52:26.316	-0.054352
15:52:26.616	-0.055352
15:52:26.916	-0.053951
15:52:27.316	-0.053544
15:52:27.617	-0.054988
15:52:27.916	-0.051335
15:52:28.316	-0.050510
15:52:28.616	-0.051573
15:52:29.016	-0.053056
15:52:29.317	-0.050405
15:52:29.716	-0.052223
15:52:30.016	-0.052009
15:52:30.417	-0.053263
15:52:30.716	-0.052101
15:52:31.116	-0.051568
15:52:31.416	-0.051280
15:52:31.816	-0.053461
15:52:32.116	-0.052275
15:52:32.516	-0.053359
15:52:32.816	-0.054498
15:52:33.116	-0.053557
15:52:33.516	-0.052022
15:52:33.816	-0.052462
15:52:34.216	-0.051961
15:52:34.516	-0.050231
15:52:34.916	-0.053001
15:52:35.216	-0.049985
15:52:35.616	-0.052293
15:52:35.916	-0.052761
15:52:36.316	-0.050939
15:52:36.616	-0.050004
15:52:36.916	-0.050614
15:52:37.316	-0.051073
15:52:37.616	-0.050952
15:52:38.016	-0.051816
15:52:38.316	-0.050401
15:52:38.716	-0.051238
15:52:39.016	-0.052933
15:52:39.416	-0.051207
15:52:39.716	-0.051196
15:52:40.116	-0.050683
15:52:40.416	-0.051391
15:52:40.817	-0.051463
15:52:41.116	-0.049780
15:52:41.516	-0.052327
15:52:41.817	-0.048663
15:52:42.116	-0.049055
15:52:42.516	-0.049651
15:52:42.816	-0.050408
15:52:43.216	-0.048845
15:52:43.516	-0.049537
15:52:43.916	-0.049286
15:52:44.216	-0.049619
15:52:44.616	-0.049893
15:52:44.916	-0.046162
15:52:45.216	-0.049800
15:52:45.617	-0.049415
15:52:45.916	-0.050805
15:52:46.317	-0.050386
15:52:46.616	-0.048587
15:52:47.017	-0.046729
15:52:47.317	-0.048199
15:52:47.716	-0.048521
15:52:48.016	-0.047985
15:52:48.416	-0.047281
15:52:48.716	-0.047591
15:52:49.116	-0.047018
15:52:49.416	-0.047370
15:52:49.816	-0.047746
15:52:50.116	-0.048529
15:52:50.517	-0.047906
15:52:50.816	-0.045522
15:52:51.116	-0.044496
15:52:51.516	-0.044951
15:52:51.816	-0.046449
15:52:52.117	-0.047364
15:52:52.516	-0.049552
15:52:52.816	-0.047370
15:52:53.216	-0.046655
15:52:53.516	-0.044955
15:52:53.916	-0.043815
15:52:54.216	-0.044791
15:52:54.617	-0.047522
15:52:54.916	-0.041399
15:52:55.316	-0.043200
15:52:55.616	-0.043126
15:52:56.016	-0.042276
15:52:56.316	-0.039725
15:52:56.716	-0.043658
15:52:57.016	-0.043946
15:52:57.416	-0.040915
15:52:57.717	-0.036336
15:52:58.016	-0.037073
15:52:58.416	-0.034070
15:52:58.716	-0.034949
15:52:59.016	-0.030004
15:52:59.416	-0.022526
15:52:59.717	-0.001947
15:53:00.016	0.023922
15:53:00.416	0.116788
15:53:00.717	0.271973
15:53:01.116	0.350606
15:53:01.416	0.288498
15:53:01.816	0.176321
15:53:02.117	0.131166
15:53:02.517	0.060735
15:53:02.816	0.011552
15:53:03.117	-0.000289
15:53:03.517	-0.026381
15:53:03.816	-0.033303
15:53:04.216	-0.031492
15:53:04.517	-0.029138
15:53:04.916	-0.020080
15:53:05.216	-0.001136
15:53:05.617	0.022441
15:53:05.916	0.021823
15:53:06.216	0.016501
15:53:06.616	0.009320
15:53:06.917	0.004147
15:53:07.316	-0.010400
15:53:07.616	-0.020699
15:53:07.917	-0.026331
15:53:08.316	-0.032139
15:53:08.617	-0.041482
15:53:09.016	-0.048991
15:53:09.316	-0.053774
15:53:09.616	-0.052564
15:53:10.016	-0.056384
15:53:10.317	-0.060655
15:53:10.716	-0.058223
15:53:11.016	-0.059137
15:53:11.417	-0.060531
15:53:11.717	-0.060788
15:53:12.017	-0.061963
15:53:12.417	-0.061971
15:53:12.717	-0.060733
15:53:13.117	-0.061985
15:53:13.416	-0.062432
15:53:13.716	-0.059970
15:53:14.116	-0.061384
15:53:14.416	-0.061705
15:53:14.816	-0.060376
15:53:15.116	-0.061732
15:53:15.417	-0.061007
15:53:15.816	-0.059737
15:53:16.116	-0.060988
15:53:16.517	-0.061585
15:53:16.816	-0.061613
15:53:17.217	-0.060274
15:53:17.516	-0.060789
15:53:17.817	-0.061122
15:53:18.216	-0.062525
15:53:18.517	-0.061883
15:53:18.916	-0.062001
15:53:19.216	-0.060646
15:53:19.616	-0.063005
15:53:19.916	-0.060873
15:53:20.217	-0.061367
15:53:20.616	-0.062286
15:53:20.917	-0.062191
15:53:21.216	-0.061747
15:53:21.616	-0.061660
15:53:21.917	-0.061342
15:53:22.317	-0.060893
15:53:22.617	-0.060984
15:53:23.016	-0.060696
15:53:23.316	-0.059813
15:53:23.716	-0.061315
15:53:24.017	-0.061784
15:53:24.316	-0.062967
15:53:24.717	-0.060126
15:53:25.016	-0.060844
15:53:25.417	-0.062173
15:53:25.716	-0.062251
15:53:26.116	-0.062550
15:53:26.417	-0.063616
15:53:26.817	-0.061112
15:53:27.117	-0.061074
15:53:27.417	-0.062057
15:53:27.817	-0.062295
15:53:28.116	-0.063109
15:53:28.517	-0.062526
15:53:28.816	-0.061595
15:53:29.217	-0.061593
15:53:29.516	-0.060800
15:53:29.917	-0.061733
15:53:30.216	-0.062190
15:53:30.616	-0.062752
15:53:30.917	-0.061427
15:53:31.217	-0.062293
15:53:31.616	-0.062995
15:53:31.916	-0.061887
15:53:32.316	-0.062111
15:53:32.617	-0.061469
15:53:33.017	-0.060125
15:53:33.316	-0.059568
15:53:33.716	-0.062196
15:53:34.016	-0.060417
15:53:34.417	-0.060843
15:53:34.716	-0.059489
15:53:35.117	-0.061363
15:53:35.417	-0.061662
15:53:35.816	-0.061193
15:53:36.117	-0.059922
15:53:36.416	-0.062203
15:53:36.817	-0.061705
15:53:37.117	-0.062566
15:53:37.417	-0.061089
15:53:37.816	-0.061402
15:53:38.116	-0.062201
15:53:38.516	-0.062849
15:53:38.817	-0.060550
15:53:39.216	-0.061148
15:53:39.518	-0.060121
15:53:39.917	-0.060890
15:53:40.216	-0.060586
15:53:40.617	-0.061903
15:53:40.917	-0.062394
15:53:41.316	-0.062174
15:53:41.617	-0.060365
15:53:42.016	-0.059874
15:53:42.317	-0.060440
15:53:42.717	-0.061821
15:53:43.017	-0.057759
15:53:43.317	-0.060607
15:53:43.716	-0.060615
15:53:44.017	-0.062106
15:53:44.416	-0.061988
15:53:44.716	-0.063247
15:53:45.116	-0.062187
15:53:45.416	-0.062033
15:53:45.816	-0.061558
15:53:46.117	-0.059203
15:53:46.517	-0.061578
15:53:46.817	-0.062609
15:53:47.216	-0.060458
15:53:47.517	-0.059743
15:53:47.917	-0.061073
15:53:48.217	-0.060760
15:53:48.517	-0.061160
15:53:48.917	-0.060802
15:53:49.217	-0.062356
15:53:49.616	-0.061497
15:53:49.917	-0.059730
15:53:50.217	-0.060254
15:53:50.617	-0.062076
15:53:50.917	-0.062527
15:53:51.317	-0.062119
15:53:51.616	-0.061399
15:53:52.017	-0.060701
15:53:52.316	-0.060568
15:53:52.617	-0.059261
15:53:53.017	-0.061157
15:53:53.316	-0.059682
15:53:53.617	-0.061799
15:53:54.017	-0.060761
15:53:54.317	-0.060914
15:53:54.616	-0.060527
15:53:55.017	-0.061608
15:53:55.316	-0.062285
15:53:55.717	-0.060945
15:53:56.017	-0.061612
15:53:56.317	-0.061816
15:53:56.716	-0.059410
15:53:57.017	-0.059618
15:53:57.317	-0.058514
15:53:57.717	-0.062797
15:53:58.016	-0.062243
15:53:58.316	-0.061679
15:53:58.717	-0.061639
15:53:59.017	-0.060778
15:53:59.317	-0.061061
15:53:59.717	-0.059459
15:54:00.017	-0.059600
15:54:00.317	-0.060525
15:54:00.717	-0.058800
15:54:01.016	-0.061210
15:54:01.417	-0.058423
15:54:01.717	-0.060735
15:54:02.118	-0.060079
15:54:02.416	-0.060476
15:54:02.817	-0.060660
15:54:03.117	-0.059704
15:54:03.417	-0.059759
15:54:03.817	-0.060383
15:54:04.117	-0.058853
15:54:04.517	-0.058332
15:54:04.917	-0.052453
15:54:05.216	-0.018121
15:54:05.617	0.345812
15:54:05.917	0.685447
15:54:06.316	1.263771
15:54:06.616	0.950348
15:54:07.017	0.392139
15:54:07.317	0.253231
15:54:07.717	0.114902
15:54:08.017	0.000580
15:54:08.416	-0.055046
15:54:08.717	-0.057858
15:54:09.116	-0.058050
15:54:09.417	-0.059936
15:54:09.817	-0.060258
15:54:10.117	-0.059074
15:54:10.516	-0.060210
15:54:10.817	-0.059413
15:54:11.217	-0.060205
15:54:11.517	-0.061217
15:54:11.917	-0.060760
15:54:12.217	-0.061617
15:54:12.517	-0.061257
15:54:12.917	-0.061140
15:54:13.217	-0.062345
15:54:13.517	-0.061237
15:54:13.917	-0.058163
15:54:14.217	-0.057249
15:54:14.617	-0.059544
15:54:14.917	-0.060666
15:54:15.316	-0.060975
15:54:15.617	-0.061911
15:54:16.017	-0.060521
15:54:16.317	-0.059411
15:54:16.717	-0.060870
15:54:17.017	-0.061639
15:54:17.317	-0.060017
15:54:17.717	-0.060558
15:54:18.117	-0.060638
15:54:18.416	-0.059697
15:54:18.717	-0.060666
15:54:19.117	-0.061348
15:54:19.417	-0.060089
15:54:19.717	-0.060280
15:54:20.117	-0.060853
15:54:20.416	-0.061868
15:54:20.717	-0.061939
15:54:21.117	-0.059218
15:54:21.416	-0.061730
15:54:21.717	-0.058959
15:54:22.117	-0.060829
15:54:22.417	-0.061842
15:54:22.717	-0.063173
15:54:23.116	-0.058071
15:54:23.417	-0.061541
15:54:23.817	-0.059538
15:54:24.117	-0.062394
15:54:24.417	-0.060599
15:54:24.817	-0.062059
15:54:25.117	-0.060363
15:54:25.517	-0.061107
15:54:25.817	-0.059367
15:54:26.217	-0.060536
15:54:26.516	-0.060060
15:54:26.816	-0.059558
15:54:27.217	-0.060154
15:54:27.517	-0.060044
15:54:27.917	-0.059956
15:54:28.217	-0.059678
15:54:28.516	-0.060399
15:54:28.917	-0.060043
15:54:29.217	-0.059892
15:54:29.617	-0.059941
15:54:29.916	-0.060907
15:54:30.217	-0.060068
15:54:30.617	-0.060476
15:54:30.916	-0.060447
15:54:31.317	-0.060483
15:54:31.617	-0.060841
15:54:32.016	-0.060200
15:54:32.317	-0.060335
15:54:32.617	-0.058957
15:54:33.017	-0.059004
15:54:33.317	-0.059941
15:54:33.717	-0.058931
15:54:34.017	-0.058994
15:54:34.417	-0.058826
15:54:34.717	-0.057698
15:54:35.117	-0.058296
15:54:35.417	-0.057356
15:54:35.717	-0.053554
15:54:36.117	-0.047311
15:54:36.417	-0.018188
15:54:36.717	0.014007
15:54:37.117	0.152112
15:54:37.416	0.358260
15:54:37.816	0.437955
15:54:38.117	0.375949
15:54:38.417	0.250997
15:54:38.817	0.182212
15:54:39.117	0.149565
15:54:39.517	0.074672
15:54:39.816	0.070438
15:54:40.217	0.077598
15:54:40.517	0.103113
15:54:40.817	0.121513
15:54:41.217	0.189868
15:54:41.516	0.262659
15:54:41.817	0.263403
15:54:42.217	0.208694
15:54:42.517	0.138488
15:54:42.817	0.106767
15:54:43.217	0.066921
15:54:43.517	0.038640
15:54:43.817	0.036288
15:54:44.217	0.026044
15:54:44.517	0.021634
15:54:44.817	0.022089
15:54:45.217	0.022200
15:54:45.516	0.023157
15:54:45.817	0.017226
15:54:46.217	0.017245
15:54:46.517	0.019964
15:54:46.817	0.016549
15:54:47.217	0.016769
15:54:47.517	0.010975
15:54:47.817	0.013089
15:54:48.217	0.014610
15:54:48.517	0.015973
15:54:48.817	0.018328
15:54:49.217	0.016991
15:54:49.517	0.015641
15:54:49.917	0.016278
15:54:50.217	0.016819
15:54:50.617	0.022067
15:54:50.917	0.022830
15:54:51.217	0.017981
15:54:51.617	0.021518
15:54:51.917	0.021668
15:54:52.317	0.026804
15:54:52.617	0.021664
15:54:52.917	0.018327
15:54:53.317	0.017896
15:54:53.617	0.016174
15:54:54.017	0.014786
15:54:54.316	0.013216
15:54:54.617	0.012118
15:54:55.017	0.015103
15:54:55.316	0.013006
15:54:55.717	0.012133
15:54:56.017	0.010810
15:54:56.317	0.005910
15:54:56.717	0.007931
15:54:57.017	0.008227
15:54:57.417	0.012962
15:54:57.717	0.014881
15:54:58.017	0.011570
15:54:58.417	0.013781
15:54:58.717	0.016907
15:54:59.016	0.015332
15:54:59.417	0.016873
15:54:59.717	0.019185
15:55:00.017	0.020052
15:55:00.417	0.020773
15:55:00.717	0.020857
15:55:01.016	0.021496
15:55:01.417	0.025769
15:55:01.717	0.030920
15:55:02.117	0.037376
15:55:02.417	0.034456
15:55:02.717	0.033987
15:55:03.116	0.031323
15:55:03.417	0.031233
15:55:03.817	0.038319
15:55:04.117	0.032960
15:55:04.517	0.037323
15:55:04.817	0.045945
15:55:05.117	0.042583
15:55:05.517	0.051134
15:55:05.817	0.059913
15:55:06.117	0.064761
15:55:06.517	0.060750
15:55:06.817	0.086414
15:55:07.117	0.106849
15:55:07.517	0.131386
15:55:07.817	0.155499
15:55:08.217	0.197812
15:55:08.517	0.214550
15:55:08.917	0.267361
15:55:09.217	0.312480
15:55:09.517	0.326255
15:55:09.917	0.338662
15:55:10.217	0.284824
15:55:10.617	0.186281
15:55:10.917	0.122078
15:55:11.317	0.085218
15:55:11.617	0.074704
15:55:12.017	0.069526
15:55:12.317	0.084016
15:55:12.717	0.139210
15:55:13.017	0.188700
15:55:13.417	0.343790
15:55:13.717	0.638044
15:55:14.017	0.846580
15:55:14.417	1.514931
15:55:14.717	2.163693
15:55:15.017	0.000000
15:55:19.117	0.047418
15:55:19.417	0.042233
15:55:19.817	0.035029
15:55:20.117	0.033959
15:55:20.517	0.032090
15:55:20.817	0.031454
15:55:21.117	0.027956
15:55:21.517	0.027317
15:55:21.817	0.026506
15:55:22.217	0.026045
15:55:22.517	0.024243
15:55:22.817	0.028540
15:55:23.217	0.026850
15:55:23.517	0.018562
15:55:23.917	0.015176
15:55:24.217	0.014740
15:55:24.518	0.023409
15:55:24.917	0.018217
15:55:25.217	0.018177
15:55:25.517	0.021933
15:55:25.917	0.015667
15:55:26.218	0.018310
15:55:26.517	0.022845
15:55:26.917	0.024702
15:55:27.217	0.024306
15:55:27.617	0.015453
15:55:27.917	0.016689
15:55:28.317	0.019576
15:55:28.618	0.011873
15:55:28.918	0.016183
15:55:29.317	0.009842
15:55:29.617	0.009172
15:55:29.917	0.005535
15:55:30.317	0.012714
15:55:30.617	0.009362
15:55:30.917	0.011421
15:55:31.317	0.007347
15:55:31.617	0.014317
15:55:31.917	0.012637
15:55:32.318	0.008447
15:55:32.617	0.012992
15:55:33.018	0.014314
15:55:33.317	0.013639
15:55:33.717	0.013476
15:55:34.018	0.015174
15:55:34.417	0.013356
15:55:34.717	0.012401
15:55:35.017	0.009638
15:55:35.417	0.007104
15:55:35.717	0.016745
15:55:36.117	0.008077
15:55:36.418	0.014326
15:55:36.817	0.017808
15:55:37.117	0.011468
15:55:37.517	0.014232
15:55:37.817	0.013974
15:55:38.117	0.013599
15:55:38.517	0.014899
15:55:38.817	0.010076
15:55:39.117	0.011412
15:55:39.517	0.005785
15:55:39.818	0.012362
15:55:40.217	0.014583
15:55:40.517	0.012041
15:55:40.917	0.015983
15:55:41.217	0.014528
15:55:41.618	0.016792
15:55:41.917	0.016954
15:55:42.218	0.016867
15:55:42.617	0.012930
15:55:42.917	0.014456
15:55:43.317	0.013622
15:55:43.617	0.017280
15:55:43.917	0.011015
15:55:44.317	0.010163
15:55:44.617	0.014076
15:55:45.017	0.008848
15:55:45.317	0.011268
15:55:45.717	0.014103
15:55:46.017	0.012608
15:55:46.318	0.011756
15:55:46.717	0.009200
15:55:47.018	0.006081
15:55:47.417	0.011003
15:55:47.717	0.012892
15:55:48.018	0.013524