Chart Recorder Data File Thu, Sep 12, 2024 2:19 PM
Time (s)	CH1 (V)  
14:11:54.584	0.018411
14:11:55.384	-0.000622
14:11:55.684	-0.005567
14:11:56.083	0.005263
14:11:56.383	0.011890
14:11:56.783	0.000299
14:11:57.084	0.007654
14:11:57.483	0.004768
14:11:57.783	-0.004097
14:11:58.184	-0.006939
14:11:58.483	-0.002403
14:11:58.884	-0.003699
14:11:59.183	0.006194
14:11:59.584	-0.003125
14:11:59.883	-0.008806
14:12:00.184	-0.000408
14:12:00.584	-0.009056
14:12:00.883	-0.008658
14:12:01.284	-0.006555
14:12:01.584	-0.002136
14:12:01.884	0.005160
14:12:02.284	0.009147
14:12:02.583	0.009268
14:12:02.984	-0.005083
14:12:03.284	-0.004002
14:12:03.684	0.014763
14:12:03.984	0.012217
14:12:04.283	0.006192
14:12:04.684	0.001218
14:12:04.983	-0.004580
14:12:05.284	0.001573
14:12:05.683	-0.001017
14:12:05.983	0.002246
14:12:06.284	0.005940
14:12:06.684	0.006731
14:12:06.984	0.003515
14:12:07.284	0.003538
14:12:07.684	0.019798
14:12:07.983	0.004539
14:12:08.383	-0.001110
14:12:08.683	0.000145
14:12:08.983	0.002801
14:12:09.384	0.001546
14:12:09.683	0.009427
14:12:09.984	0.014286
14:12:10.384	0.000220
14:12:10.684	0.007762
14:12:11.083	0.008386
14:12:11.384	0.013795
14:12:11.783	0.000247
14:12:12.084	0.008789
14:12:12.384	-0.002593
14:12:12.783	-0.000945
14:12:13.084	-0.002555
14:12:13.383	-0.000773
14:12:13.784	0.001667
14:12:14.083	-0.002931
14:12:14.484	-0.004068
14:12:14.784	-0.011115
14:12:15.184	-0.009087
14:12:15.484	-0.005424
14:12:15.884	0.001463
14:12:16.183	0.005760
14:12:16.583	0.003005
14:12:16.884	-0.009430
14:12:17.184	-0.012893
14:12:17.583	0.016389
14:12:17.884	0.011222
14:12:18.184	0.010864
14:12:18.583	-0.004429
14:12:18.883	-0.002756
14:12:19.284	0.000002
14:12:19.583	-0.016723
14:12:19.883	-0.008819
14:12:20.284	-0.000771
14:12:20.584	-0.002267
14:12:20.983	0.008079
14:12:21.284	0.013508
14:12:21.584	0.009325
14:12:21.984	0.000722
14:12:22.284	0.001926
14:12:22.684	-0.005821
14:12:22.984	0.002950
14:12:23.284	0.000547
14:12:23.683	0.007644
14:12:23.984	-0.002981
14:12:24.383	-0.000598
14:12:24.684	-0.000001
14:12:25.084	0.021521
14:12:25.384	-0.006569
14:12:25.784	0.003200
14:12:26.083	0.002453
14:12:26.384	0.004888
14:12:26.784	0.007292
14:12:27.084	0.008258
14:12:27.384	0.000559
14:12:27.783	0.005418
14:12:28.083	0.010700
14:12:28.484	0.013599
14:12:28.784	0.018083
14:12:29.184	0.007691
14:12:29.483	0.029496
14:12:29.884	0.015672
14:12:30.183	0.005647
14:12:30.484	0.009244
14:12:30.884	0.004629
14:12:31.183	0.003371
14:12:31.483	0.005384
14:12:31.883	0.020775
14:12:32.184	0.019053
14:12:32.483	-0.003233
14:12:32.884	-0.000241
14:12:33.184	-0.002056
14:12:33.584	0.002381
14:12:33.884	0.010586
14:12:34.284	0.002780
14:12:34.583	-0.001519
14:12:34.884	0.004980
14:12:35.284	0.009314
14:12:35.584	0.017981
14:12:35.984	0.016804
14:12:36.284	0.013806
14:12:36.684	0.005727
14:12:36.983	0.004785
14:12:37.283	0.007022
14:12:37.684	0.015115
14:12:37.984	0.004349
14:12:38.283	0.014429
14:12:38.684	0.008550
14:12:38.983	0.026551
14:12:39.384	0.015163
14:12:39.684	0.007714
14:12:40.084	0.005503
14:12:40.383	0.011801
14:12:40.684	0.008033
14:12:41.084	0.004926
14:12:41.383	0.019686
14:12:41.784	0.005637
14:12:42.083	0.004508
14:12:42.384	0.009068
14:12:42.784	0.000020
14:12:43.084	0.015668
14:12:43.484	0.025775
14:12:43.784	0.010048
14:12:44.083	0.012955
14:12:44.484	0.011311
14:12:44.784	0.013918
14:12:45.184	0.004754
14:12:45.484	0.010144
14:12:45.884	0.000478
14:12:46.184	-0.005563
14:12:46.484	0.003638
14:12:46.884	0.019930
14:12:47.184	0.012697
14:12:47.584	0.020068
14:12:47.884	0.011701
14:12:48.184	0.010260
14:12:48.584	-0.005142
14:12:48.884	0.012748
14:12:49.284	0.015683
14:12:49.584	0.014166
14:12:49.984	0.007136
14:12:50.284	0.017911
14:12:50.684	0.009703
14:12:50.984	0.011368
14:12:51.284	0.015310
14:12:51.684	0.002534
14:12:51.984	0.006108
14:12:52.284	0.013287
14:12:52.684	0.012298
14:12:52.984	0.018383
14:12:53.283	0.017571
14:12:53.684	0.004863
14:12:53.984	0.015372
14:12:54.384	0.008286
14:12:54.684	0.002008
14:12:55.084	0.008741
14:12:55.385	0.006615
14:12:55.684	0.010354
14:12:56.084	0.020193
14:12:56.384	0.011103
14:12:56.685	0.008929
14:12:57.084	0.013641
14:12:57.384	0.013121
14:12:57.784	0.005851
14:12:58.084	0.008021
14:12:58.384	0.008787
14:12:58.784	0.018008
14:12:59.084	0.016588
14:12:59.484	0.020707
14:12:59.784	0.014333
14:13:00.183	0.010401
14:13:00.483	0.028036
14:13:00.784	0.019194
14:13:01.184	0.019719
14:13:01.484	0.010385
14:13:01.884	0.001972
14:13:02.184	0.004633
14:13:02.483	0.016207
14:13:02.884	0.017838
14:13:03.184	0.018107
14:13:03.484	0.018292
14:13:03.884	0.017431
14:13:04.184	0.022949
14:13:04.584	0.014575
14:13:04.884	0.024016
14:13:05.284	0.018068
14:13:05.584	0.013567
14:13:05.884	0.015407
14:13:06.284	0.019238
14:13:06.584	0.014449
14:13:06.984	0.023730
14:13:07.284	0.028587
14:13:07.584	0.026413
14:13:07.983	0.019858
14:13:08.284	0.021220
14:13:08.584	0.028027
14:13:08.984	0.014776
14:13:09.284	0.012626
14:13:09.585	0.013307
14:13:09.984	0.019583
14:13:10.284	0.023800
14:13:10.584	0.009099
14:13:10.984	0.018763
14:13:11.284	0.018840
14:13:11.684	0.015706
14:13:11.984	0.011599
14:13:12.384	0.023862
14:13:12.684	0.011584
14:13:13.084	0.008769
14:13:13.383	0.011249
14:13:13.684	0.014300
14:13:14.083	0.011713
14:13:14.384	0.010690
14:13:14.684	0.016906
14:13:15.084	0.028223
14:13:15.384	0.027003
14:13:15.684	0.008063
14:13:16.084	0.014967
14:13:16.384	0.021834
14:13:16.684	0.027191
14:13:17.084	0.037071
14:13:17.384	0.043432
14:13:17.684	0.028051
14:13:18.084	0.023282
14:13:18.384	0.024525
14:13:18.784	0.021664
14:13:19.084	0.009341
14:13:19.484	0.020545
14:13:19.783	0.008715
14:13:20.184	0.005169
14:13:20.484	0.041191
14:13:20.884	0.023537
14:13:21.184	0.014169
14:13:21.484	0.020146
14:13:21.885	0.023721
14:13:22.184	0.030746
14:13:22.584	0.026132
14:13:22.884	0.030593
14:13:23.284	0.027113
14:13:23.584	0.020701
14:13:23.884	0.017761
14:13:24.284	0.016960
14:13:24.584	0.024678
14:13:24.884	0.023781
14:13:25.284	0.023360
14:13:25.584	0.024304
14:13:25.984	0.026035
14:13:26.284	0.029642
14:13:26.584	0.013489
14:13:26.984	0.019210
14:13:27.284	0.023662
14:13:27.684	0.024144
14:13:27.984	0.020279
14:13:28.384	0.027244
14:13:28.684	0.024942
14:13:29.084	0.017789
14:13:29.384	0.023649
14:13:29.684	0.016505
14:13:30.084	0.032323
14:13:30.384	0.033985
14:13:30.684	0.032347
14:13:31.084	0.033732
14:13:31.384	0.024599
14:13:31.784	0.034582
14:13:32.084	0.038026
14:13:32.484	0.033748
14:13:32.784	0.035779
14:13:33.184	0.048763
14:13:33.484	0.041151
14:13:33.784	0.053818
14:13:34.184	0.055768
14:13:34.484	0.044397
14:13:34.784	0.040414
14:13:35.184	0.041342
14:13:35.484	0.038742
14:13:35.784	0.046182
14:13:36.184	0.053211
14:13:36.484	0.054197
14:13:36.784	0.071498
14:13:37.184	0.077756
14:13:37.484	0.084684
14:13:37.784	0.086617
14:13:38.184	0.111544
14:13:38.484	0.118034
14:13:38.784	0.147387
14:13:39.184	0.197957
14:13:39.484	0.244933
14:13:39.884	0.398673
14:13:40.184	0.675297
14:13:40.484	0.842111
14:13:40.884	1.062512
14:13:41.184	1.083221
14:13:41.584	0.964515
14:13:41.884	0.811856
14:13:42.284	0.648837
14:13:42.584	0.610118
14:13:42.884	0.518754
14:13:43.284	0.431796
14:13:43.584	0.364912
14:13:43.884	0.278652
14:13:44.284	0.197738
14:13:44.584	0.177383
14:13:44.884	0.136678
14:13:45.284	0.092773
14:13:45.585	0.075083
14:13:45.984	0.066341
14:13:46.284	0.076420
14:13:46.684	0.072993
14:13:46.984	0.063292
14:13:47.284	0.058942
14:13:47.684	0.046985
14:13:47.984	0.051288
14:13:48.284	0.051466
14:13:48.684	0.085919
14:13:48.984	0.096177
14:13:49.384	0.123760
14:13:49.684	0.154056
14:13:49.984	0.192683
14:13:50.384	0.225213
14:13:50.685	0.228519
14:13:50.984	0.191233
14:13:51.384	0.192267
14:13:51.684	0.180036
14:13:51.984	0.181773
14:13:52.384	0.160422
14:13:52.684	0.154033
14:13:52.984	0.137690
14:13:53.385	0.134851
14:13:53.684	0.122219
14:13:53.984	0.110655
14:13:54.384	0.107281
14:13:54.684	0.096388
14:13:54.984	0.097803
14:13:55.384	0.091754
14:13:55.684	0.079934
14:13:55.984	0.079896
14:13:56.384	0.084833
14:13:56.684	0.054443
14:13:56.984	0.060051
14:13:57.384	0.054299
14:13:57.684	0.061115
14:13:57.984	0.061510
14:13:58.384	0.066865
14:13:58.685	0.053196
14:13:58.984	0.046601
14:13:59.384	0.056765
14:13:59.685	0.063702
14:13:59.985	0.056152
14:14:00.384	0.040845
14:14:00.684	0.048246
14:14:00.985	0.052573
14:14:01.384	0.038685
14:14:01.684	0.040472
14:14:01.984	0.041468
14:14:02.385	0.050668
14:14:02.684	0.037655
14:14:02.984	0.026635
14:14:03.384	0.010591
14:14:03.684	0.014763
14:14:04.084	0.016343
14:14:04.384	0.001689
14:14:04.684	0.000365
14:14:05.084	0.001781
14:14:05.384	0.009649
14:14:05.684	0.012878
14:14:06.084	0.000075
14:14:06.384	-0.017968
14:14:06.684	-0.018105
14:14:07.084	-0.007499
14:14:07.485	-0.011696
14:14:07.784	-0.013411
14:14:08.084	-0.011695
14:14:08.484	-0.009085
14:14:08.784	-0.000442
14:14:09.085	-0.004492
14:14:09.485	-0.005893
14:14:09.784	-0.018060
14:14:10.084	-0.022790
14:14:10.484	-0.019992
14:14:10.785	-0.019858
14:14:11.184	-0.014213
14:14:11.484	-0.012187
14:14:11.784	-0.013719
14:14:12.185	-0.003194
14:14:12.484	-0.011267
14:14:12.884	-0.000152
14:14:13.185	-0.007332
14:14:13.584	-0.013823
14:14:13.884	-0.019469
14:14:14.285	-0.011986
14:14:14.584	-0.014170
14:14:14.984	-0.019365
14:14:15.284	-0.015681
14:14:15.584	-0.011393
14:14:15.984	-0.017762
14:14:16.284	-0.014402
14:14:16.685	-0.009472
14:14:16.985	-0.015299
14:14:17.284	-0.010680
14:14:17.684	-0.020215
14:14:17.985	-0.014821
14:14:18.385	-0.013136
14:14:18.684	-0.012888
14:14:18.984	-0.012357
14:14:19.384	-0.004953
14:14:19.684	-0.012519
14:14:19.984	-0.011057
14:14:20.384	-0.017241
14:14:20.684	-0.018532
14:14:21.084	-0.017738
14:14:21.385	-0.020696
14:14:21.784	-0.011205
14:14:22.084	-0.019339
14:14:22.484	-0.024434
14:14:22.784	-0.024080
14:14:23.085	-0.020583
14:14:23.484	-0.014140
14:14:23.785	-0.024680
14:14:24.084	-0.015999
14:14:24.484	-0.012109
14:14:24.785	-0.019645
14:14:25.184	-0.014139
14:14:25.484	-0.009209
14:14:25.884	-0.017070
14:14:26.185	-0.006505
14:14:26.484	-0.008743
14:14:26.884	-0.008285
14:14:27.184	-0.011810
14:14:27.584	-0.010504
14:14:27.884	-0.022153
14:14:28.284	-0.016632
14:14:28.585	-0.014530
14:14:28.984	-0.016441
14:14:29.285	-0.021756
14:14:29.584	-0.020242
14:14:29.984	-0.014021
14:14:30.285	-0.010972
14:14:30.684	-0.014045
14:14:30.984	-0.000896
14:14:31.285	-0.013122
14:14:31.685	-0.017694
14:14:31.984	-0.016423
14:14:32.385	-0.013609
14:14:32.685	-0.024627
14:14:32.985	-0.009652
14:14:33.385	-0.019844
14:14:33.684	-0.019012
14:14:33.985	-0.023985
14:14:34.384	-0.020107
14:14:34.685	-0.016581
14:14:34.984	-0.017264
14:14:35.384	-0.013498
14:14:35.684	-0.013956
14:14:35.984	-0.015112
14:14:36.384	-0.017111
14:14:36.685	-0.025925
14:14:36.984	-0.019393
14:14:37.385	-0.004354
14:14:37.685	-0.006540
14:14:37.984	-0.008417
14:14:38.384	-0.009223
14:14:38.684	-0.007621
14:14:39.084	-0.019423
14:14:39.384	-0.014317
14:14:39.784	-0.024847
14:14:40.085	-0.019261
14:14:40.384	-0.017129
14:14:40.784	-0.016591
14:14:41.084	-0.013769
14:14:41.484	-0.010880
14:14:41.785	-0.014671
14:14:42.184	-0.020467
14:14:42.484	-0.018625
14:14:42.885	-0.021426
14:14:43.185	-0.021276
14:14:43.484	-0.010907
14:14:43.885	-0.010297
14:14:44.184	-0.016375
14:14:44.585	-0.013810
14:14:44.885	-0.015652
14:14:45.185	-0.008794
14:14:45.585	0.001351
14:14:45.885	-0.010532
14:14:46.285	-0.018091
14:14:46.584	-0.013555
14:14:46.984	-0.020135
14:14:47.285	-0.018386
14:14:47.684	-0.013325
14:14:47.984	-0.018884
14:14:48.285	-0.018601
14:14:48.684	-0.022417
14:14:48.985	-0.022235
14:14:49.285	-0.014938
14:14:49.684	-0.008068
14:14:49.985	-0.016571
14:14:50.284	-0.007283
14:14:50.684	-0.007149
14:14:50.984	-0.006903
14:14:51.285	-0.016018
14:14:51.685	-0.010311
14:14:51.985	-0.027486
14:14:52.285	-0.018204
14:14:52.685	-0.006654
14:14:52.984	-0.011858
14:14:53.385	-0.020579
14:14:53.685	-0.019519
14:14:54.086	-0.020667
14:14:54.385	-0.022340
14:14:54.785	-0.013701
14:14:55.085	-0.021547
14:14:55.385	-0.020245
14:14:55.785	-0.014433
14:14:56.084	-0.012316
14:14:56.485	-0.020859
14:14:56.784	-0.025040
14:14:57.084	-0.024633
14:14:57.484	-0.023164
14:14:57.785	-0.022554
14:14:58.084	-0.017528
14:14:58.485	-0.013018
14:14:58.785	-0.017057
14:14:59.084	-0.017430
14:14:59.485	-0.014061
14:14:59.786	-0.011060
14:15:00.184	-0.011191
14:15:00.485	-0.006083
14:15:00.785	0.000283
14:15:01.184	-0.010331
14:15:01.484	-0.033377
14:15:01.785	-0.009297
14:15:02.185	-0.002954
14:15:02.485	-0.015184
14:15:02.884	-0.020820
14:15:03.185	-0.018218
14:15:03.585	-0.018067
14:15:03.885	-0.014982
14:15:04.185	-0.011504
14:15:04.584	-0.020693
14:15:04.884	-0.018142
14:15:05.184	-0.019196
14:15:05.585	-0.004340
14:15:05.885	-0.011568
14:15:06.185	-0.015185
14:15:06.586	-0.004119
14:15:06.885	-0.001753
14:15:07.285	-0.005506
14:15:07.585	-0.015224
14:15:07.985	-0.022379
14:15:08.285	-0.016823
14:15:08.586	-0.021771
14:15:08.984	-0.008707
14:15:09.284	-0.021865
14:15:09.685	-0.013189
14:15:09.985	-0.016732
14:15:10.384	-0.009733
14:15:10.685	-0.006145
14:15:11.085	-0.026241
14:15:11.385	-0.021231
14:15:11.684	-0.018086
14:15:12.085	-0.006326
14:15:12.384	-0.001565
14:15:12.784	-0.014333
14:15:13.084	-0.012404
14:15:13.384	-0.009540
14:15:13.784	-0.010839
14:15:14.084	-0.018954
14:15:14.485	-0.026645
14:15:14.785	-0.021274
14:15:15.084	-0.008331
14:15:15.485	-0.023455
14:15:15.784	-0.003772
14:15:16.185	-0.011488
14:15:16.485	-0.015063
14:15:16.784	-0.015236
14:15:17.184	-0.018827
14:15:17.485	-0.014691
14:15:17.885	-0.010615
14:15:18.185	-0.021543
14:15:18.485	-0.019292
14:15:18.885	0.001532
14:15:19.185	-0.004691
14:15:19.485	-0.006760
14:15:19.884	-0.014160
14:15:20.184	-0.013233
14:15:20.484	-0.009625
14:15:20.885	-0.017607
14:15:21.185	-0.011026
14:15:21.585	-0.008298
14:15:21.884	-0.010191
14:15:22.185	-0.006415
14:15:22.585	0.001615
14:15:22.884	-0.011270
14:15:23.185	-0.014475
14:15:23.585	-0.016597
14:15:23.884	-0.010399
14:15:24.285	-0.014897
14:15:24.585	-0.014243
14:15:24.985	-0.014916
14:15:25.285	-0.022201
14:15:25.686	-0.010162
14:15:25.986	-0.022428
14:15:26.285	-0.013982
14:15:26.685	-0.007747
14:15:26.984	-0.011817
14:15:27.284	-0.013870
14:15:27.685	-0.016916
14:15:27.984	-0.011511
14:15:28.385	-0.006569
14:15:28.684	-0.007081
14:15:28.985	-0.017808
14:15:29.384	-0.017297
14:15:29.684	-0.011533
14:15:29.984	-0.022205
14:15:30.384	-0.010761
14:15:30.685	-0.015463
14:15:31.084	-0.002270
14:15:31.384	-0.014055
14:15:31.785	-0.018118
14:15:32.085	-0.014327
14:15:32.385	-0.008780
14:15:32.785	-0.009325
14:15:33.085	-0.014569
14:15:33.385	-0.012786
14:15:33.785	-0.010501
14:15:34.085	-0.005349
14:15:34.386	-0.011287
14:15:34.785	-0.017630
14:15:35.085	-0.017628
14:15:35.485	-0.011723
14:15:35.785	-0.009493
14:15:36.085	-0.023132
14:15:36.485	-0.021047
14:15:36.785	-0.006702
14:15:37.185	-0.003864
14:15:37.485	-0.010434
14:15:37.785	-0.009152
14:15:38.185	-0.020809
14:15:38.485	-0.014211
14:15:38.885	-0.011579
14:15:39.185	-0.007535
14:15:39.585	-0.012360
14:15:39.884	-0.016691
14:15:40.286	-0.018744
14:15:40.584	-0.022195
14:15:40.985	-0.017897
14:15:41.285	-0.016128
14:15:41.584	-0.017143
14:15:41.985	-0.011624
14:15:42.285	-0.023617
14:15:42.685	-0.009923
14:15:42.985	-0.007325
14:15:43.285	-0.013072
14:15:43.685	-0.016334
14:15:43.984	-0.011541
14:15:44.286	-0.008421
14:15:44.685	-0.011537
14:15:44.984	-0.014117
14:15:45.385	-0.024535
14:15:45.684	-0.019878
14:15:46.085	-0.018203
14:15:46.485	-0.013220
14:15:46.784	-0.023491
14:15:47.084	-0.014437
14:15:47.485	-0.006754
14:15:47.785	-0.009514
14:15:48.085	-0.010703
14:15:48.484	-0.008891
14:15:48.785	-0.002367
14:15:49.185	0.005997
14:15:49.485	0.017192
14:15:49.884	0.030445
14:15:50.185	0.097140
14:15:50.485	0.191083
14:15:50.884	0.761315
14:15:51.185	0.000000
14:15:55.284	0.016295
14:15:55.585	-0.004984
14:15:55.885	-0.009535
14:15:56.285	-0.017330
14:15:56.585	-0.015534
14:15:56.984	-0.002096
14:15:57.285	-0.011162
14:15:57.585	-0.019379
14:15:57.985	-0.016050
14:15:58.285	-0.012824
14:15:58.585	-0.015045
14:15:58.985	-0.011142
14:15:59.285	-0.010914
14:15:59.585	-0.010532
14:15:59.985	-0.011542
14:16:00.285	-0.018313
14:16:00.585	-0.019127
14:16:00.985	-0.017789
14:16:01.285	-0.014204
14:16:01.585	-0.016367
14:16:01.986	-0.009853
14:16:02.285	-0.003256
14:16:02.585	0.006672
14:16:02.984	0.003398
14:16:03.285	-0.011474
14:16:03.684	-0.010521
14:16:03.985	-0.014071
14:16:04.284	-0.013911
14:16:04.685	-0.006493
14:16:04.984	-0.010446
14:16:05.385	-0.007103
14:16:05.684	-0.008516
14:16:05.985	-0.012414
14:16:06.385	-0.008518
14:16:06.684	-0.007439
14:16:07.085	-0.022355
14:16:07.385	-0.013903
14:16:07.685	-0.019155
14:16:08.085	-0.019921
14:16:08.386	-0.014512
14:16:08.685	-0.013915
14:16:09.084	-0.016306
14:16:09.384	-0.011100
14:16:09.685	-0.018827
14:16:10.085	-0.012550
14:16:10.385	-0.025237
14:16:10.685	-0.017927
14:16:11.085	-0.012723
14:16:11.384	-0.023584
14:16:11.685	-0.007804
14:16:12.085	-0.017953
14:16:12.385	-0.016088
14:16:12.685	-0.014880
14:16:13.085	-0.000595
14:16:13.385	-0.007555
14:16:13.685	-0.017363
14:16:14.085	-0.018897
14:16:14.384	-0.016379
14:16:14.685	-0.015748
14:16:15.085	-0.020645
14:16:15.386	-0.019670
14:16:15.685	-0.010880
14:16:16.085	-0.017574
14:16:16.385	-0.017567
14:16:16.685	-0.018797
14:16:17.085	-0.009425
14:16:17.385	-0.010265
14:16:17.685	-0.014166
14:16:18.085	-0.018022
14:16:18.385	-0.023560
14:16:18.685	-0.027878
14:16:19.085	-0.014869
14:16:19.386	-0.031574
14:16:19.685	-0.030056
14:16:20.085	-0.019181
14:16:20.385	-0.017603
14:16:20.685	-0.018955
14:16:21.085	-0.011793
14:16:21.385	-0.011321
14:16:21.685	-0.016565
14:16:22.085	-0.015599
14:16:22.385	-0.011544
14:16:22.686	-0.009863
14:16:23.085	-0.014247
14:16:23.385	-0.013579
14:16:23.685	-0.008558
14:16:24.085	-0.010940
14:16:24.385	-0.015528
14:16:24.686	-0.014669
14:16:25.085	-0.013945
14:16:25.385	-0.015354
14:16:25.686	-0.012470
14:16:26.085	-0.016978
14:16:26.385	-0.013502
14:16:26.685	-0.008228
14:16:27.085	-0.014046
14:16:27.385	-0.014748
14:16:27.785	-0.024398
14:16:28.085	-0.010144
14:16:28.485	-0.009176
14:16:28.785	-0.012152
14:16:29.085	-0.013951
14:16:29.485	-0.011450
14:16:29.785	-0.009740
14:16:30.085	-0.015035
14:16:30.485	-0.014285
14:16:30.785	-0.013573
14:16:31.185	-0.016474
14:16:31.485	-0.008455
14:16:31.785	-0.025447
14:16:32.185	-0.021686
14:16:32.485	-0.016331
14:16:32.785	-0.022259
14:16:33.185	-0.023263
14:16:33.485	-0.016315
14:16:33.785	-0.014654
14:16:34.185	-0.026182
14:16:34.485	-0.019300
14:16:34.885	-0.014737
14:16:35.185	-0.015447
14:16:35.485	-0.007065
14:16:35.885	-0.008213
14:16:36.185	-0.013320
14:16:36.486	-0.004965
14:16:36.885	-0.008751
14:16:37.185	-0.017627
14:16:37.585	-0.013972
14:16:37.885	-0.011196
14:16:38.285	-0.012924
14:16:38.585	-0.004584
14:16:38.885	-0.007904
14:16:39.285	-0.005125
14:16:39.585	-0.008740
14:16:39.885	0.000823
14:16:40.285	-0.012242
14:16:40.585	-0.005648
14:16:40.885	-0.011187
14:16:41.286	-0.010975
14:16:41.585	-0.019657
14:16:41.885	-0.022284
14:16:42.285	-0.015534
14:16:42.585	-0.010439
14:16:42.885	0.001605
14:16:43.285	0.000460
14:16:43.586	-0.006020
14:16:43.885	-0.013719
14:16:44.285	-0.011237
14:16:44.585	-0.011368
14:16:44.885	0.003508
14:16:45.285	-0.006580
14:16:45.585	-0.007341
14:16:45.885	-0.011175
14:16:46.285	-0.015912
14:16:46.585	-0.026737
14:16:46.986	-0.011601
14:16:47.285	-0.008552
14:16:47.586	-0.006185
14:16:47.985	-0.017267
14:16:48.285	-0.017945
14:16:48.685	-0.013186
14:16:48.985	-0.007998
14:16:49.285	-0.003760
14:16:49.685	-0.007746
14:16:49.985	-0.020602
14:16:50.285	-0.019346
14:16:50.686	-0.012085
14:16:50.985	-0.012109
14:16:51.285	-0.014233
14:16:51.685	-0.018511
14:16:51.985	-0.006091
14:16:52.385	-0.007686
14:16:52.685	-0.003737
14:16:52.985	-0.002533
14:16:53.385	-0.001996
14:16:53.685	0.029509
14:16:53.986	0.031398
14:16:54.385	0.038110
14:16:54.685	0.028710
14:16:54.985	0.022319
14:16:55.385	0.017921
14:16:55.685	0.003648
14:16:55.985	0.001527
14:16:56.386	0.007768
14:16:56.685	-0.002100
14:16:56.985	0.010581
14:16:57.385	0.002126
14:16:57.685	-0.006300
14:16:57.985	-0.005891
14:16:58.385	-0.004589
14:16:58.685	0.008147
14:16:59.085	0.009246
14:16:59.385	0.000205
14:16:59.686	0.015048
14:17:00.085	0.015914
14:17:00.385	0.021567
14:17:00.685	0.031964
14:17:01.085	0.049322
14:17:01.386	0.088709
14:17:01.685	0.103862
14:17:02.085	0.135447
14:17:02.385	0.160350
14:17:02.785	0.174833
14:17:03.085	0.156565
14:17:03.385	0.172550
14:17:03.785	0.147380
14:17:04.085	0.126414
14:17:04.385	0.136151
14:17:04.785	0.152878
14:17:05.085	0.153931
14:17:05.485	0.113529
14:17:05.786	0.126860
14:17:06.086	0.124454
14:17:06.485	0.139763
14:17:06.785	0.127432
14:17:07.085	0.119143
14:17:07.485	0.154795
14:17:07.785	0.162145
14:17:08.085	0.173052
14:17:08.485	0.168144
14:17:08.785	0.172338
14:17:09.085	0.155256
14:17:09.485	0.169989
14:17:09.786	0.174092
14:17:10.085	0.210842
14:17:10.485	0.216385
14:17:10.785	0.211048
14:17:11.085	0.195174
14:17:11.485	0.164468
14:17:11.785	0.175435
14:17:12.086	0.192725
14:17:12.485	0.168291
14:17:12.786	0.177711
14:17:13.085	0.159629
14:17:13.486	0.194794
14:17:13.786	0.203322
14:17:14.085	0.178323
14:17:14.486	0.195848
14:17:14.785	0.215343
14:17:15.085	0.217981
14:17:15.486	0.200216
14:17:15.785	0.183221
14:17:16.085	0.175385
14:17:16.486	0.165868
14:17:16.785	0.175115
14:17:17.085	0.175782
14:17:17.486	0.184472
14:17:17.786	0.202109
14:17:18.085	0.205006
14:17:18.485	0.176033
14:17:18.785	0.191519
14:17:19.085	0.204979
14:17:19.485	0.206142
14:17:19.785	0.190700
14:17:20.185	0.177208
14:17:20.486	0.183712
14:17:20.786	0.172654
14:17:21.186	0.177505
14:17:21.485	0.179834
14:17:21.886	0.175499
14:17:22.185	0.199355
14:17:22.485	0.181859
14:17:22.886	0.175774
14:17:23.185	0.172603
14:17:23.585	0.172379
14:17:23.885	0.184501
14:17:24.185	0.180651
14:17:24.585	0.191415
14:17:24.885	0.163492
14:17:25.185	0.160095
14:17:25.585	0.170400
14:17:25.885	0.183598
14:17:26.185	0.185286
14:17:26.585	0.182568
14:17:26.885	0.158831
14:17:27.185	0.177393
14:17:27.585	0.177511
14:17:27.886	0.183713
14:17:28.185	0.173450
14:17:28.585	0.186986
14:17:28.886	0.150134
14:17:29.185	0.171655
14:17:29.585	0.169041
14:17:29.886	0.180055
14:17:30.185	0.168769
14:17:30.586	0.164985
14:17:30.886	0.156750
14:17:31.186	0.182115
14:17:31.585	0.161635
14:17:31.885	0.166487
14:17:32.185	0.165825
14:17:32.585	0.169414
14:17:32.885	0.183901
14:17:33.185	0.169571
14:17:33.586	0.150736
14:17:33.885	0.163907
14:17:34.186	0.169210
14:17:34.586	0.177776
14:17:34.885	0.181184
14:17:35.186	0.189978
14:17:35.586	0.204103
14:17:35.885	0.205636
14:17:36.186	0.203675
14:17:36.586	0.191843
14:17:36.885	0.206202
14:17:37.286	0.191242
14:17:37.585	0.204266
14:17:37.885	0.220315
14:17:38.286	0.178831
14:17:38.585	0.188136
14:17:38.886	0.201623
14:17:39.285	0.211724
14:17:39.585	0.209149
14:17:39.885	0.199986
14:17:40.285	0.205526
14:17:40.586	0.202864
14:17:40.985	0.205504
14:17:41.285	0.210436
14:17:41.586	0.218002
14:17:41.985	0.205150
14:17:42.285	0.215785
14:17:42.586	0.228664
14:17:42.986	0.230012
14:17:43.285	0.214299
14:17:43.585	0.208297
14:17:43.986	0.202210
14:17:44.285	0.207695
14:17:44.585	0.203787
14:17:44.985	0.191266
14:17:45.285	0.217855
14:17:45.585	0.229427
14:17:45.986	0.228202
14:17:46.286	0.219293
14:17:46.586	0.216549
14:17:46.985	0.222180
14:17:47.285	0.209365
14:17:47.686	0.202738
14:17:47.985	0.231753
14:17:48.286	0.236592
14:17:48.685	0.247907
14:17:48.986	0.223316
14:17:49.386	0.239451
14:17:49.686	0.265451
14:17:50.085	0.276726
14:17:50.385	0.276344
14:17:50.685	0.272239
14:17:51.085	0.273408
14:17:51.386	0.275160
14:17:51.785	0.267888
14:17:52.085	0.306898
14:17:52.385	0.334804
14:17:52.785	0.346422
14:17:53.086	0.369583
14:17:53.385	0.374593
14:17:53.785	0.411752
14:17:54.086	0.450016
14:17:54.485	0.484207
14:17:54.786	0.489765
14:17:55.085	0.537150
14:17:55.486	0.593074
14:17:55.785	0.612640
14:17:56.085	0.651300
14:17:56.485	0.697494
14:17:56.785	0.726558
14:17:57.085	0.778500
14:17:57.485	0.854837
14:17:57.785	0.904157
14:17:58.185	0.930002
14:17:58.487	0.904907
14:17:58.786	0.966419
14:17:59.185	0.876392
14:17:59.486	0.809069
14:17:59.885	0.640214
14:18:00.186	0.530994
14:18:00.486	0.487145
14:18:00.886	0.404207
14:18:01.185	0.354440
14:18:01.585	0.326133
14:18:01.886	0.317037
14:18:02.185	0.292755
14:18:02.585	0.274672
14:18:02.885	0.276094
14:18:03.186	0.294740
14:18:03.585	0.299667
14:18:03.885	0.315254
14:18:04.186	0.349502
14:18:04.586	0.410302
14:18:04.886	0.469859
14:18:05.285	0.607742
14:18:05.586	0.729040
14:18:05.885	0.908066
14:18:06.287	1.204922
14:18:06.586	1.374560
14:18:06.986	1.832880
14:18:07.286	4.636942
14:18:08.585	5.580773
14:18:08.886	5.803308
14:18:09.285	5.376179
14:18:09.586	4.264244
14:18:09.986	3.315222
14:18:10.286	2.553993
14:18:10.685	2.303484
14:18:10.985	1.115085
14:18:12.286	0.851282
14:18:12.586	0.728202
14:18:12.886	0.575562
14:18:13.285	0.463354
14:18:13.585	0.404852
14:18:13.986	0.380575
14:18:14.285	0.354427
14:18:14.586	0.338056
14:18:14.985	0.324278
14:18:15.285	0.312003
14:18:15.686	0.293663
14:18:15.986	0.284854
14:18:16.286	0.269883
14:18:16.687	0.248934
14:18:16.985	0.236714
14:18:17.386	0.250008
14:18:17.685	0.251377
14:18:18.086	0.255276
14:18:18.385	0.241144
14:18:18.786	0.222203
14:18:19.086	0.208937
14:18:19.486	0.221049
14:18:19.786	0.241544
14:18:20.085	0.239517
14:18:20.486	0.230557
14:18:20.786	0.201810
14:18:21.186	0.215012
14:18:21.486	0.226547
14:18:21.886	0.228870
14:18:22.185	0.210718
14:18:22.486	0.202892
14:18:22.885	0.187709
14:18:23.186	0.195338
14:18:23.485	0.198103
14:18:23.886	0.204745
14:18:24.185	0.198931
14:18:24.586	0.166741
14:18:24.886	0.215343
14:18:25.187	0.205520
14:18:25.586	0.212224
14:18:25.886	0.207753
14:18:26.285	0.192739
14:18:26.585	0.183446
14:18:26.885	0.207045
14:18:27.286	0.194718
14:18:27.585	0.197301
14:18:27.986	0.196822
14:18:28.285	0.178491
14:18:28.586	0.185876
14:18:28.985	0.174687
14:18:29.286	0.183866
14:18:29.585	0.185785
14:18:29.986	0.210615
14:18:30.285	0.205026
14:18:30.586	0.175799
14:18:30.985	0.192529
14:18:31.285	0.198979
14:18:31.686	0.168599
14:18:31.986	0.186821
14:18:32.286	0.184766
14:18:32.685	0.201078
14:18:32.985	0.197033
14:18:33.386	0.177347
14:18:33.685	0.182574
14:18:33.986	0.177164
14:18:34.386	0.184362
14:18:34.686	0.184426
14:18:35.086	0.177868
14:18:35.385	0.182986
14:18:35.685	0.203145
14:18:36.086	0.193789
14:18:36.386	0.181668
14:18:36.686	0.176073
14:18:37.086	0.172296
14:18:37.386	0.177565
14:18:37.686	0.191754
14:18:38.086	0.182905
14:18:38.386	0.180614
14:18:38.786	0.172669
14:18:39.086	0.189885
14:18:39.485	0.174710
14:18:39.786	0.157991
14:18:40.085	0.161846
14:18:40.486	0.157949
14:18:40.785	0.172695
14:18:41.086	0.167633
14:18:41.486	0.179868
14:18:41.786	0.184453
14:18:42.186	0.170424
14:18:42.485	0.163378
14:18:42.786	0.163265
14:18:43.186	0.162870
14:18:43.486	0.157344
14:18:43.886	0.184805
14:18:44.186	0.198306
14:18:44.485	0.176418
14:18:44.886	0.172479
14:18:45.185	0.164766
14:18:45.585	0.181401
14:18:45.886	0.178047
14:18:46.185	0.174995
14:18:46.586	0.175119
14:18:46.886	0.157573
14:18:47.285	0.156832
14:18:47.586	0.170688
14:18:47.886	0.170617
14:18:48.286	0.181719
14:18:48.585	0.158655
14:18:48.986	0.178801
14:18:49.285	0.184208
14:18:49.585	0.172454
14:18:49.986	0.184922
14:18:50.286	0.190513
14:18:50.586	0.183525
14:18:50.986	0.176543
14:18:51.286	0.163286
14:18:51.585	0.163970
14:18:51.985	0.166758
14:18:52.285	0.174103
14:18:52.686	0.175045
14:18:52.986	0.184908
14:18:53.285	0.191865
14:18:53.686	0.181898
14:18:53.986	0.189408
14:18:54.286	0.209392
14:18:54.686	0.190750
14:18:54.986	0.179160
14:18:55.386	0.182822
14:18:55.686	0.177590
14:18:56.086	0.150892
14:18:56.386	0.161802
14:18:56.685	0.174888
14:18:57.086	0.176729
14:18:57.386	0.190423
14:18:57.685	0.182507
14:18:58.086	0.179568
14:18:58.385	0.179612
14:18:58.686	0.171960
14:18:59.086	0.189159
14:18:59.386	0.173627
14:18:59.685	0.163611
14:19:00.086	0.182647
14:19:00.387	0.196790
14:19:00.686	0.189640
14:19:01.086	0.200101
14:19:01.386	0.179233
14:19:01.686	0.188177
14:19:02.086	0.194143
14:19:02.385	0.191164
14:19:02.686	0.188422
14:19:03.086	0.200838
14:19:03.386	0.183154
14:19:03.686	0.189008
14:19:04.086	0.203065
14:19:04.386	0.202711
14:19:04.686	0.189377
14:19:05.086	0.199007
14:19:05.386	0.184431
14:19:05.786	0.213390
14:19:06.086	0.166372
14:19:06.486	0.171192
14:19:06.786	0.167415
14:19:07.086	0.175276
14:19:07.486	0.188438
14:19:07.786	0.185083
14:19:08.186	0.182819
14:19:08.486	0.193636
14:19:08.786	0.179689
14:19:09.186	0.180003
14:19:09.486	0.176838
14:19:09.886	0.201912
14:19:10.186	0.189319
14:19:10.486	0.187979
14:19:10.886	0.176609
14:19:11.186	0.205338
14:19:11.586	0.196952
14:19:11.885	0.190689
14:19:12.286	0.188087
14:19:12.586	0.172718
14:19:12.987	0.169090
14:19:13.286	0.158409
14:19:13.687	0.179323
14:19:13.986	0.157801
14:19:14.386	0.185640
14:19:14.686	0.187909
14:19:14.986	0.192404
14:19:15.386	0.177860
14:19:15.686	0.193398
14:19:15.986	0.174264
14:19:16.386	0.191433
14:19:16.686	0.193981
14:19:17.086	0.186084
14:19:17.386	0.191428
14:19:17.686	0.183426
14:19:18.085	0.197566
14:19:18.386	0.188587
14:19:18.686	0.174067
14:19:19.086	0.174236
14:19:19.386	0.179977
14:19:19.786	0.183666
14:19:20.086	0.188324
14:19:20.486	0.191408
14:19:20.785	0.183967
14:19:21.186	0.208473
14:19:21.486	0.186381
14:19:21.786	0.189618
14:19:22.186	0.180704
14:19:22.486	0.182949
14:19:22.886	0.183009
14:19:23.186	0.173220
14:19:23.486	0.178442
14:19:23.886	0.183380
14:19:24.186	0.178654
14:19:24.586	0.175367
14:19:24.886	0.194782
14:19:25.186	0.189678
14:19:25.586	0.164128
14:19:25.887	0.146428
14:19:26.286	0.173021
14:19:26.586	0.179916
14:19:26.886	0.174402
14:19:27.286	0.173934
14:19:27.586	0.179614
14:19:27.986	0.172973
14:19:28.286	0.172172
14:19:28.686	0.180195
14:19:28.985	0.168035
14:19:29.286	0.166923
14:19:29.686	0.182147
14:19:29.986	0.157741
14:19:30.386	0.154399
14:19:30.686	0.183901
14:19:31.086	0.178547
14:19:31.386	0.168617
14:19:31.686	0.157292
14:19:32.087	0.160645
14:19:32.386	0.169166
14:19:32.686	0.185866
14:19:33.086	0.191636
14:19:33.387	0.183916
14:19:33.686	0.184202
14:19:34.086	0.191365
14:19:34.386	0.177677
14:19:34.686	0.190549
14:19:35.086	0.180865
14:19:35.386	0.176992
14:19:35.686	0.179387
14:19:36.086	0.168813
14:19:36.386	0.164005
14:19:36.686	0.177137
14:19:37.086	0.177173