Chart Recorder Data File Fri, Sep 20, 2024 3:46 PM
Time (s)	CH1 (V)  
15:36:21.181	0.332736
15:36:22.081	0.343351
15:36:22.381	0.339298
15:36:22.681	0.335580
15:36:23.080	0.341397
15:36:23.380	0.340762
15:36:23.780	0.336850
15:36:24.081	0.327200
15:36:24.380	0.329265
15:36:24.781	0.326694
15:36:25.081	0.313416
15:36:25.480	0.281376
15:36:25.781	0.291039
15:36:26.080	0.302038
15:36:26.481	0.282322
15:36:26.781	0.272956
15:36:27.081	0.285555
15:36:27.482	0.298118
15:36:27.780	0.291306
15:36:28.181	0.292052
15:36:28.481	0.292017
15:36:28.881	0.280852
15:36:29.181	0.279591
15:36:29.580	0.284800
15:36:29.881	0.286805
15:36:30.181	0.299924
15:36:30.580	0.285963
15:36:30.881	0.282691
15:36:31.182	0.284944
15:36:31.581	0.289055
15:36:31.881	0.292903
15:36:32.181	0.290238
15:36:32.581	0.293008
15:36:32.881	0.289830
15:36:33.180	0.286753
15:36:33.581	0.284870
15:36:33.881	0.297572
15:36:34.181	0.290276
15:36:34.581	0.281621
15:36:34.881	0.280886
15:36:35.281	0.291065
15:36:35.581	0.291308
15:36:35.981	0.288358
15:36:36.281	0.277752
15:36:36.680	0.275086
15:36:36.981	0.290978
15:36:37.282	0.292516
15:36:37.680	0.292893
15:36:37.981	0.283198
15:36:38.280	0.291828
15:36:38.681	0.288061
15:36:38.981	0.280204
15:36:39.381	0.260727
15:36:39.682	0.270032
15:36:39.981	0.263111
15:36:40.381	0.276186
15:36:40.681	0.294478
15:36:40.981	0.309185
15:36:41.380	0.300560
15:36:41.681	0.280336
15:36:41.981	0.272323
15:36:42.381	0.285541
15:36:42.681	0.291925
15:36:42.981	0.276536
15:36:43.381	0.263342
15:36:43.681	0.272220
15:36:43.981	0.252683
15:36:44.381	0.242807
15:36:44.681	0.244189
15:36:44.982	0.266431
15:36:45.380	0.274827
15:36:45.681	0.256100
15:36:45.980	0.252756
15:36:46.381	0.271414
15:36:46.681	0.290342
15:36:46.981	0.292455
15:36:47.381	0.298094
15:36:47.681	0.271100
15:36:47.981	0.280143
15:36:48.381	0.303287
15:36:48.681	0.294196
15:36:48.981	0.295141
15:36:49.381	0.306664
15:36:49.681	0.307650
15:36:49.981	0.323965
15:36:50.381	0.335220
15:36:50.681	0.318968
15:36:51.081	0.328501
15:36:51.380	0.329197
15:36:51.781	0.339078
15:36:52.081	0.313523
15:36:52.381	0.313797
15:36:52.780	0.304807
15:36:53.080	0.282930
15:36:53.381	0.286228
15:36:53.781	0.299168
15:36:54.081	0.295378
15:36:54.382	0.295277
15:36:54.781	0.294173
15:36:55.081	0.287530
15:36:55.381	0.274930
15:36:55.781	0.287154
15:36:56.081	0.272875
15:36:56.481	0.272571
15:36:56.782	0.264440
15:36:57.081	0.273079
15:36:57.481	0.289518
15:36:57.781	0.275855
15:36:58.081	0.276088
15:36:58.481	0.278911
15:36:58.781	0.268840
15:36:59.081	0.268374
15:36:59.481	0.271092
15:36:59.781	0.267288
15:37:00.081	0.263086
15:37:00.481	0.260243
15:37:00.781	0.258092
15:37:01.081	0.258256
15:37:01.480	0.270382
15:37:01.781	0.276997
15:37:02.081	0.269014
15:37:02.480	0.271308
15:37:02.781	0.279220
15:37:03.182	0.268921
15:37:03.481	0.290190
15:37:03.781	0.290986
15:37:04.181	0.283782
15:37:04.481	0.299396
15:37:04.881	0.294957
15:37:05.181	0.297862
15:37:05.481	0.308591
15:37:05.881	0.334046
15:37:06.181	0.324007
15:37:06.581	0.286692
15:37:06.881	0.280846
15:37:07.281	0.283288
15:37:07.581	0.278680
15:37:07.981	0.284354
15:37:08.281	0.282611
15:37:08.681	0.290429
15:37:08.981	0.299045
15:37:09.281	0.291792
15:37:09.681	0.280064
15:37:09.981	0.289459
15:37:10.381	0.319097
15:37:10.681	0.325372
15:37:11.081	0.314414
15:37:11.381	0.311028
15:37:11.782	0.318763
15:37:12.081	0.316757
15:37:12.381	0.318581
15:37:12.781	0.314392
15:37:13.081	0.310969
15:37:13.381	0.306020
15:37:13.781	0.312348
15:37:14.081	0.309566
15:37:14.381	0.312395
15:37:14.782	0.310733
15:37:15.081	0.305259
15:37:15.481	0.319647
15:37:15.781	0.311180
15:37:16.081	0.308956
15:37:16.481	0.310932
15:37:16.781	0.333552
15:37:17.182	0.331688
15:37:17.481	0.294755
15:37:17.881	0.308671
15:37:18.182	0.317717
15:37:18.482	0.317037
15:37:18.881	0.307629
15:37:19.181	0.293003
15:37:19.481	0.307037
15:37:19.881	0.301557
15:37:20.181	0.297910
15:37:20.481	0.293386
15:37:20.881	0.277665
15:37:21.181	0.283649
15:37:21.582	0.293994
15:37:21.881	0.291797
15:37:22.181	0.304071
15:37:22.581	0.314435
15:37:22.882	0.303661
15:37:23.182	0.296736
15:37:23.581	0.275115
15:37:23.881	0.265777
15:37:24.281	0.259476
15:37:24.581	0.281178
15:37:24.981	0.285064
15:37:25.281	0.286040
15:37:25.681	0.282517
15:37:25.981	0.287308
15:37:26.281	0.297299
15:37:26.681	0.311586
15:37:26.981	0.309311
15:37:27.281	0.307050
15:37:27.681	0.297864
15:37:27.981	0.274934
15:37:28.281	0.281048
15:37:28.681	0.302181
15:37:28.981	0.309154
15:37:29.381	0.289720
15:37:29.681	0.287267
15:37:29.981	0.284877
15:37:30.381	0.293401
15:37:30.682	0.288407
15:37:31.081	0.271278
15:37:31.381	0.234302
15:37:31.781	0.232944
15:37:32.082	0.235707
15:37:32.381	0.267824
15:37:32.782	0.301501
15:37:33.081	0.304815
15:37:33.381	0.308141
15:37:33.782	0.293897
15:37:34.081	0.305259
15:37:34.382	0.301288
15:37:34.781	0.291383
15:37:35.081	0.308492
15:37:35.381	0.293004
15:37:35.781	0.281548
15:37:36.082	0.274278
15:37:36.382	0.279462
15:37:36.782	0.283118
15:37:37.081	0.280493
15:37:37.381	0.277157
15:37:37.781	0.279915
15:37:38.082	0.288723
15:37:38.481	0.283431
15:37:38.782	0.275302
15:37:39.182	0.270810
15:37:39.482	0.280705
15:37:39.882	0.276187
15:37:40.182	0.278432
15:37:40.482	0.271952
15:37:40.882	0.279185
15:37:41.182	0.283973
15:37:41.481	0.282029
15:37:41.882	0.283506
15:37:42.182	0.276041
15:37:42.582	0.289910
15:37:42.881	0.288239
15:37:43.281	0.285706
15:37:43.582	0.282862
15:37:43.982	0.278156
15:37:44.281	0.263803
15:37:44.581	0.272273
15:37:44.982	0.274564
15:37:45.282	0.280701
15:37:45.681	0.284382
15:37:45.982	0.276190
15:37:46.281	0.297903
15:37:46.682	0.297854
15:37:46.982	0.306482
15:37:47.382	0.304910
15:37:47.682	0.301902
15:37:47.981	0.314160
15:37:48.382	0.293432
15:37:48.683	0.288166
15:37:49.081	0.290668
15:37:49.381	0.283375
15:37:49.681	0.282663
15:37:50.081	0.292020
15:37:50.381	0.299092
15:37:50.682	0.307102
15:37:51.082	0.301740
15:37:51.382	0.302532
15:37:51.682	0.297972
15:37:52.082	0.300790
15:37:52.381	0.295220
15:37:52.782	0.275796
15:37:53.081	0.281561
15:37:53.382	0.283320
15:37:53.782	0.264410
15:37:54.081	0.251288
15:37:54.382	0.258551
15:37:54.782	0.268483
15:37:55.081	0.269572
15:37:55.382	0.260904
15:37:55.782	0.255058
15:37:56.082	0.268316
15:37:56.382	0.282685
15:37:56.781	0.284751
15:37:57.082	0.290789
15:37:57.382	0.294101
15:37:57.781	0.305016
15:37:58.082	0.307031
15:37:58.381	0.297962
15:37:58.782	0.300110
15:37:59.082	0.298605
15:37:59.481	0.298953
15:37:59.782	0.300964
15:38:00.181	0.317771
15:38:00.482	0.311010
15:38:00.781	0.294908
15:38:01.181	0.302282
15:38:01.481	0.302007
15:38:01.781	0.300709
15:38:02.182	0.313443
15:38:02.482	0.306987
15:38:02.782	0.296658
15:38:03.182	0.308847
15:38:03.481	0.329755
15:38:03.781	0.329298
15:38:04.182	0.314324
15:38:04.482	0.303016
15:38:04.782	0.284202
15:38:05.182	0.269639
15:38:05.482	0.290622
15:38:05.782	0.304983
15:38:06.181	0.288553
15:38:06.481	0.299011
15:38:06.881	0.308475
15:38:07.181	0.316073
15:38:07.482	0.315498
15:38:07.882	0.313433
15:38:08.182	0.321442
15:38:08.482	0.327674
15:38:08.882	0.336454
15:38:09.181	0.334229
15:38:09.482	0.326959
15:38:09.881	0.324445
15:38:10.181	0.326675
15:38:10.482	0.364995
15:38:10.882	0.368110
15:38:11.181	0.326315
15:38:11.582	0.327841
15:38:11.882	0.335491
15:38:12.281	0.474026
15:38:12.581	0.521153
15:38:12.982	0.512962
15:38:13.282	0.519522
15:38:13.682	0.511962
15:38:13.982	0.485601
15:38:14.282	0.487069
15:38:14.682	0.474995
15:38:14.981	0.478562
15:38:15.381	0.466257
15:38:15.681	0.470538
15:38:15.982	0.451835
15:38:16.381	0.464231
15:38:16.681	0.484817
15:38:17.082	0.485157
15:38:17.381	0.491899
15:38:17.682	0.479539
15:38:18.082	0.474187
15:38:18.381	0.477088
15:38:18.682	0.465585
15:38:19.081	0.451485
15:38:19.381	0.440783
15:38:19.681	0.450018
15:38:20.082	0.435873
15:38:20.382	0.427434
15:38:20.681	0.411919
15:38:21.083	0.417526
15:38:21.382	0.439914
15:38:21.782	0.433293
15:38:22.082	0.447432
15:38:22.382	0.436244
15:38:22.782	0.462297
15:38:23.182	0.454354
15:38:23.481	0.467246
15:38:23.781	0.468819
15:38:24.182	0.466798
15:38:24.482	0.473432
15:38:24.782	0.453719
15:38:25.182	0.463641
15:38:25.482	0.491633
15:38:25.782	0.499307
15:38:26.182	0.485360
15:38:26.482	0.483771
15:38:26.782	0.490389
15:38:27.182	0.496314
15:38:27.481	0.527845
15:38:27.781	0.520588
15:38:28.181	0.513658
15:38:28.481	0.500280
15:38:28.782	0.530221
15:38:29.181	0.547338
15:38:29.483	0.570850
15:38:29.782	0.555857
15:38:30.182	0.540021
15:38:30.483	0.531774
15:38:30.781	0.568585
15:38:31.182	0.631659
15:38:31.482	0.614934
15:38:31.781	0.593745
15:38:32.182	0.580342
15:38:32.482	0.580591
15:38:32.782	0.591236
15:38:33.182	0.576844
15:38:33.481	0.640039
15:38:33.782	0.678285
15:38:34.183	0.646685
15:38:34.482	0.667774
15:38:34.881	0.696599
15:38:35.182	0.744141
15:38:35.482	0.808630
15:38:35.883	0.833756
15:38:36.182	0.798772
15:38:36.582	0.792965
15:38:36.881	0.859730
15:38:37.282	0.906589
15:38:37.581	0.898493
15:38:37.882	0.968012
15:38:38.281	1.008097
15:38:38.581	1.005515
15:38:38.882	1.000668
15:38:39.282	1.003688
15:38:39.582	0.997955
15:38:39.882	1.017079
15:38:40.281	0.984212
15:38:40.581	0.943200
15:38:40.982	0.899409
15:38:41.281	0.900936
15:38:41.682	0.921395
15:38:41.982	0.894865
15:38:42.382	0.881846
15:38:42.682	0.859036
15:38:43.082	0.857332
15:38:43.382	0.830707
15:38:43.681	0.860675
15:38:44.082	0.844365
15:38:44.381	0.860907
15:38:44.682	0.825265
15:38:45.081	0.790195
15:38:45.381	0.798039
15:38:45.681	0.827946
15:38:46.081	0.788609
15:38:46.382	0.715496
15:38:46.681	0.748495
15:38:47.082	0.768187
15:38:47.381	0.718897
15:38:47.682	0.700520
15:38:48.082	0.706105
15:38:48.382	0.704502
15:38:48.682	0.692014
15:38:49.082	0.660528
15:38:49.382	0.645178
15:38:49.783	0.760917
15:38:50.082	0.756562
15:38:50.482	0.701032
15:38:50.781	0.688528
15:38:51.182	0.667052
15:38:51.482	0.630170
15:38:51.782	0.629118
15:38:52.182	0.607860
15:38:52.482	0.632014
15:38:52.782	0.663194
15:38:53.182	0.701033
15:38:53.482	0.714019
15:38:53.782	0.688066
15:38:54.182	0.682446
15:38:54.482	0.689797
15:38:54.781	0.673739
15:38:55.181	0.731455
15:38:55.482	0.695389
15:38:55.882	0.620775
15:38:56.182	0.645177
15:38:56.582	0.714034
15:38:56.881	0.703020
15:38:57.281	0.728273
15:38:57.582	0.740055
15:38:57.882	0.650480
15:38:58.282	0.602039
15:38:58.582	0.548574
15:38:58.881	0.541147
15:38:59.282	0.495151
15:38:59.582	0.460334
15:38:59.882	0.408800
15:39:00.282	0.386714
15:39:00.582	0.380942
15:39:00.882	0.416258
15:39:01.282	0.449408
15:39:01.582	0.481419
15:39:01.982	0.448683
15:39:02.382	0.446855
15:39:02.682	0.458387
15:39:02.982	0.463657
15:39:03.382	0.433413
15:39:03.682	0.418865
15:39:03.982	0.441981
15:39:04.382	0.490748
15:39:04.682	0.475633
15:39:04.982	0.616945
15:39:05.381	0.489851
15:39:05.682	0.531516
15:39:05.982	0.529047
15:39:06.382	0.595518
15:39:06.682	0.557563
15:39:07.082	0.565415
15:39:07.382	0.578188
15:39:07.781	0.578866
15:39:08.082	0.653967
15:39:08.482	0.574987
15:39:08.782	0.536882
15:39:09.181	0.461960
15:39:09.481	0.434526
15:39:09.782	0.432351
15:39:10.182	0.494278
15:39:10.482	0.511769
15:39:10.782	0.510059
15:39:11.182	0.525447
15:39:11.482	0.486284
15:39:11.781	0.495688
15:39:12.181	0.471044
15:39:12.482	0.476706
15:39:12.782	0.465722
15:39:13.182	0.451124
15:39:13.482	0.468027
15:39:13.782	0.452332
15:39:14.182	0.447763
15:39:14.482	0.449191
15:39:14.782	0.514794
15:39:15.182	0.449100
15:39:15.482	0.474145
15:39:15.882	0.465685
15:39:16.182	0.468120
15:39:16.581	0.408405
15:39:16.882	0.421646
15:39:17.282	0.421647
15:39:17.582	0.412296
15:39:17.982	0.412082
15:39:18.282	0.406656
15:39:18.681	0.363681
15:39:18.981	0.387717
15:39:19.382	0.394194
15:39:19.682	0.406312
15:39:19.982	0.416147
15:39:20.382	0.535325
15:39:20.682	0.516102
15:39:20.982	0.436146
15:39:21.381	0.420749
15:39:21.682	0.399312
15:39:21.982	0.516166
15:39:22.382	0.501647
15:39:22.682	0.498090
15:39:23.082	0.462136
15:39:23.382	0.493399
15:39:23.782	0.520786
15:39:24.082	0.483099
15:39:24.382	0.478605
15:39:24.782	0.451259
15:39:25.082	0.529456
15:39:25.482	0.502029
15:39:25.782	0.500587
15:39:26.082	0.503506
15:39:26.482	0.429208
15:39:26.782	0.433517
15:39:27.182	0.451413
15:39:27.481	0.424986
15:39:27.782	0.422318
15:39:28.182	0.439749
15:39:28.582	0.438060
15:39:28.882	0.481038
15:39:29.182	0.486074
15:39:29.582	0.452795
15:39:29.881	0.432120
15:39:30.282	0.383980
15:39:30.582	0.379483
15:39:30.882	0.378596
15:39:31.282	0.438089
15:39:31.582	0.458202
15:39:31.882	0.419766
15:39:32.281	0.409540
15:39:32.582	0.439410
15:39:32.882	0.424879
15:39:33.282	0.468583
15:39:33.582	0.408810
15:39:33.882	0.401121
15:39:34.282	0.444283
15:39:34.582	0.443817
15:39:34.881	0.450562
15:39:35.281	0.451996
15:39:35.582	0.443203
15:39:35.882	0.424549
15:39:36.282	0.420314
15:39:36.582	0.440583
15:39:36.982	0.411587
15:39:37.282	0.404332
15:39:37.682	0.392127
15:39:37.982	0.405154
15:39:38.282	0.409690
15:39:38.682	0.416805
15:39:38.982	0.428634
15:39:39.382	0.423557
15:39:39.682	0.417299
15:39:39.982	0.422293
15:39:40.382	0.383697
15:39:40.682	0.438449
15:39:41.082	0.392293
15:39:41.482	0.351850
15:39:41.782	0.356279
15:39:42.082	0.349585
15:39:42.481	0.380269
15:39:42.782	0.365810
15:39:43.082	0.392468
15:39:43.482	0.409005
15:39:43.782	0.424859
15:39:44.182	0.398007
15:39:44.482	0.414319
15:39:44.882	0.407023
15:39:45.182	0.437216
15:39:45.582	0.437738
15:39:45.882	0.412343
15:39:46.282	0.403963
15:39:46.582	0.454507
15:39:46.881	0.475918
15:39:47.282	0.399840
15:39:47.582	0.470743
15:39:47.982	0.413451
15:39:48.282	0.414484
15:39:48.682	0.407130
15:39:48.982	0.378547
15:39:49.282	0.378698
15:39:49.682	0.438701
15:39:49.982	0.425607
15:39:50.282	0.421839
15:39:50.682	0.392664
15:39:50.981	0.463434
15:39:51.382	0.426090
15:39:51.682	0.435933
15:39:51.982	0.492388
15:39:52.382	0.444146
15:39:52.682	0.494768
15:39:52.982	0.433814
15:39:53.382	0.485867
15:39:53.682	0.521646
15:39:53.982	0.459688
15:39:54.383	0.440533
15:39:54.682	0.462796
15:39:54.982	0.482008
15:39:55.381	0.505613
15:39:55.682	0.630884
15:39:55.982	0.643845
15:39:56.382	0.698268
15:39:56.682	0.605889
15:39:56.982	0.596094
15:39:57.382	0.601212
15:39:57.682	0.529044
15:39:58.082	0.537980
15:39:58.382	0.530518
15:39:58.781	0.581124
15:39:59.082	0.558054
15:39:59.382	0.563541
15:39:59.782	0.572264
15:40:00.082	0.576705
15:40:00.382	0.566159
15:40:00.782	0.527519
15:40:01.082	0.525311
15:40:01.383	0.514450
15:40:01.782	0.536298
15:40:02.082	0.554034
15:40:02.482	0.533307
15:40:02.782	0.507110
15:40:03.082	0.469643
15:40:03.482	0.457034
15:40:03.782	0.436309
15:40:04.082	0.418957
15:40:04.482	0.393947
15:40:04.782	0.418018
15:40:05.182	0.461681
15:40:05.482	0.485586
15:40:05.883	0.476296
15:40:06.182	0.464882
15:40:06.582	0.437574
15:40:06.882	0.441480
15:40:07.282	0.458065
15:40:07.582	0.500533
15:40:07.982	0.448152
15:40:08.282	0.430015
15:40:08.682	0.438719
15:40:08.982	0.465260
15:40:09.282	0.521394
15:40:09.682	0.530376
15:40:09.982	0.483549
15:40:10.382	0.461102
15:40:10.682	0.421930
15:40:10.982	0.449342
15:40:11.382	0.421225
15:40:11.682	0.402997
15:40:12.082	0.484059
15:40:12.382	0.467793
15:40:12.782	0.465977
15:40:13.082	0.432051
15:40:13.382	0.465283
15:40:13.782	0.450559
15:40:14.082	0.445897
15:40:14.482	0.434312
15:40:14.782	0.443130
15:40:15.082	0.461382
15:40:15.482	0.459294
15:40:15.782	0.499225
15:40:16.082	0.505347
15:40:16.482	0.528671
15:40:16.782	0.513474
15:40:17.082	0.466686
15:40:17.482	0.459609
15:40:17.782	0.498540
15:40:18.082	0.498016
15:40:18.482	0.491855
15:40:18.782	0.485616
15:40:19.182	0.429950
15:40:19.483	0.431492
15:40:19.882	0.439714
15:40:20.182	0.426488
15:40:20.482	0.463208
15:40:20.882	0.461512
15:40:21.182	0.471517
15:40:21.482	0.493539
15:40:21.883	0.492116
15:40:22.182	0.474903
15:40:22.482	0.458069
15:40:22.882	0.417170
15:40:23.182	0.423486
15:40:23.583	0.461466
15:40:23.882	0.453009
15:40:24.282	0.404360
15:40:24.582	0.399775
15:40:24.982	0.395321
15:40:25.282	0.409104
15:40:25.683	0.417621
15:40:25.982	0.433896
15:40:26.382	0.408921
15:40:26.682	0.461108
15:40:27.082	0.515530
15:40:27.382	0.500304
15:40:27.682	0.481571
15:40:28.082	0.532901
15:40:28.382	0.505135
15:40:28.782	0.474821
15:40:29.082	0.485780
15:40:29.482	0.466605
15:40:29.782	0.452496
15:40:30.182	0.453242
15:40:30.482	0.479633
15:40:30.882	0.441934
15:40:31.182	0.449910
15:40:31.482	0.436668
15:40:31.883	0.436643
15:40:32.183	0.434776
15:40:32.482	0.454386
15:40:32.882	0.508684
15:40:33.182	0.468485
15:40:33.582	0.446118
15:40:33.882	0.430373
15:40:34.182	0.485203
15:40:34.583	0.458088
15:40:34.882	0.446051
15:40:35.182	0.420518
15:40:35.582	0.442730
15:40:35.882	0.425518
15:40:36.182	0.404745
15:40:36.582	0.422612
15:40:36.882	0.441458
15:40:37.283	0.436904
15:40:37.582	0.458984
15:40:37.982	0.454615
15:40:38.282	0.443787
15:40:38.682	0.435693
15:40:38.982	0.490577
15:40:39.382	0.500075
15:40:39.682	0.491627
15:40:39.982	0.483544
15:40:40.382	0.478331
15:40:40.682	0.478505
15:40:41.082	0.503606
15:40:41.382	0.511416
15:40:41.683	0.544958
15:40:42.083	0.614778
15:40:42.382	0.633847
15:40:42.783	0.679765
15:40:43.082	0.705297
15:40:43.382	0.736142
15:40:43.783	0.844351
15:40:44.082	0.885297
15:40:44.483	0.925273
15:40:44.782	0.959660
15:40:45.082	0.985316
15:40:45.482	1.106496
15:40:45.783	1.097560
15:40:46.082	1.166011
15:40:46.482	1.222842
15:40:46.782	1.218929
15:40:47.183	1.237828
15:40:47.482	1.282564
15:40:47.882	1.412649
15:40:48.183	1.487674
15:40:48.583	1.510633
15:40:48.882	1.623233
15:40:49.282	1.609437
15:40:49.583	1.567263
15:40:49.983	1.531037
15:40:50.283	1.505431
15:40:50.582	1.525708
15:40:50.983	1.446514
15:40:51.282	1.362907
15:40:51.583	1.261069
15:40:51.983	1.252681
15:40:52.283	1.255464
15:40:52.683	1.209676
15:40:52.982	1.067712
15:40:53.283	1.016301
15:40:53.683	0.916804
15:40:53.982	0.831332
15:40:54.382	0.788972
15:40:54.683	0.807175
15:40:55.082	0.760777
15:40:55.382	0.693561
15:40:55.783	0.647935
15:40:56.083	0.641868
15:40:56.383	0.600770
15:40:56.783	0.607244
15:40:57.082	0.598182
15:40:57.382	0.579980
15:40:57.782	0.574208
15:40:58.083	0.542097
15:40:58.383	0.537351
15:40:58.783	0.526103
15:40:59.083	0.525324
15:40:59.383	0.536206
15:40:59.783	0.499433
15:41:00.082	0.506427
15:41:00.383	0.505708
15:41:00.783	0.526790
15:41:01.083	0.566045
15:41:01.483	0.566577
15:41:01.783	0.566153
15:41:02.183	0.555763
15:41:02.483	0.484496
15:41:02.883	0.486536
15:41:03.183	0.475190
15:41:03.582	0.494152
15:41:03.882	0.495488
15:41:04.183	0.518940
15:41:04.583	0.532479
15:41:04.882	0.522283
15:41:05.283	0.528686
15:41:05.584	0.558063
15:41:05.983	0.504539
15:41:06.283	0.510931
15:41:06.583	0.509087
15:41:06.982	0.512398
15:41:07.283	0.536069
15:41:07.683	0.561791
15:41:07.983	0.571912
15:41:08.383	0.550700
15:41:08.683	0.562952
15:41:09.083	0.557968
15:41:09.382	0.554478
15:41:09.683	0.545981
15:41:10.082	0.563747
15:41:10.382	0.593689
15:41:10.683	0.593996
15:41:11.082	0.564725
15:41:11.382	0.545229
15:41:11.682	0.506385
15:41:12.083	0.489772
15:41:12.382	0.505506
15:41:12.783	0.491182
15:41:13.083	0.547732
15:41:13.382	0.551407
15:41:13.782	0.541698
15:41:14.083	0.529033
15:41:14.383	0.550468
15:41:14.783	0.578493
15:41:15.083	0.597213
15:41:15.483	0.604454
15:41:15.782	0.564945
15:41:16.183	0.519237
15:41:16.483	0.509501
15:41:16.883	0.536411
15:41:17.183	0.563624
15:41:17.583	0.512667
15:41:17.883	0.552609
15:41:18.282	0.511512
15:41:18.583	0.525512
15:41:18.882	0.543091
15:41:19.282	0.537974
15:41:19.583	0.541578
15:41:19.983	0.498285
15:41:20.282	0.453772
15:41:20.582	0.528143
15:41:20.983	0.570018
15:41:21.283	0.602836
15:41:21.582	0.581534
15:41:21.983	0.542404
15:41:22.282	0.539249
15:41:22.683	0.551573
15:41:22.983	0.606544
15:41:23.382	0.533141
15:41:23.682	0.611750
15:41:24.083	0.621252
15:41:24.382	0.613577
15:41:24.683	0.630147
15:41:25.083	0.617669
15:41:25.383	0.646737
15:41:25.682	0.636649
15:41:26.083	0.607776
15:41:26.383	0.606081
15:41:26.683	0.621819
15:41:27.083	0.644547
15:41:27.382	0.623637
15:41:27.683	0.692814
15:41:28.082	0.686079
15:41:28.382	0.618741
15:41:28.683	0.618103
15:41:29.083	0.625851
15:41:29.383	0.641052
15:41:29.782	0.632357
15:41:30.083	0.625104
15:41:30.483	0.613061
15:41:30.783	0.644310
15:41:31.083	0.695343
15:41:31.483	0.714125
15:41:31.783	0.728771
15:41:32.082	0.772166
15:41:32.483	0.712685
15:41:32.782	0.683589
15:41:33.083	0.664796
15:41:33.482	0.744068
15:41:33.783	0.731337
15:41:34.183	0.671029
15:41:34.482	0.678921
15:41:34.882	0.710168
15:41:35.183	0.693124
15:41:35.583	0.702277
15:41:35.883	0.678501
15:41:36.283	0.644153
15:41:36.583	0.648505
15:41:36.983	0.632655
15:41:37.283	0.628581
15:41:37.683	0.669295
15:41:37.983	0.638004
15:41:38.383	0.739459
15:41:38.682	0.721730
15:41:39.083	0.726355
15:41:39.383	0.751433
15:41:39.782	0.690200
15:41:40.082	0.696022
15:41:40.382	0.719890
15:41:40.783	0.769321
15:41:41.083	0.756836
15:41:41.383	0.721272
15:41:41.783	0.730924
15:41:42.083	0.701173
15:41:42.482	0.671533
15:41:42.783	0.705474
15:41:43.183	0.712638
15:41:43.483	0.672628
15:41:43.882	0.661829
15:41:44.183	0.597179
15:41:44.583	0.599920
15:41:44.882	0.673036
15:41:45.282	0.698188
15:41:45.583	0.696893
15:41:45.883	0.732664
15:41:46.282	0.686437
15:41:46.582	0.666811
15:41:46.883	0.661597
15:41:47.283	0.639526
15:41:47.583	0.609480
15:41:47.883	0.571958
15:41:48.282	0.611069
15:41:48.583	0.682066
15:41:48.883	0.714706
15:41:49.283	0.693135
15:41:49.582	0.739561
15:41:49.882	0.765950
15:41:50.283	0.747368
15:41:50.582	0.737030
15:41:50.983	0.778842
15:41:51.282	0.826277
15:41:51.683	0.799714
15:41:51.982	0.799538
15:41:52.383	0.739386
15:41:52.683	0.765404
15:41:52.982	0.693766
15:41:53.382	0.625966
15:41:53.682	0.669782
15:41:53.983	0.731368
15:41:54.383	0.718756
15:41:54.683	0.748016
15:41:54.983	0.772224
15:41:55.383	0.745261
15:41:55.683	0.672853
15:41:55.983	0.722878
15:41:56.383	0.723853
15:41:56.683	0.708643
15:41:56.982	0.701791
15:41:57.382	0.672390
15:41:57.683	0.639860
15:41:58.083	0.657823
15:41:58.383	0.683636
15:41:58.783	0.619729
15:41:59.083	0.636047
15:41:59.383	0.683592
15:41:59.783	0.689701
15:42:00.082	0.694471
15:42:00.482	0.725546
15:42:00.782	0.729577
15:42:01.083	0.698129
15:42:01.482	0.768146
15:42:01.783	0.822164
15:42:02.183	0.824862
15:42:02.483	0.732791
15:42:02.783	0.725683
15:42:03.183	0.750856
15:42:03.483	0.778537
15:42:03.782	0.795812
15:42:04.183	0.724483
15:42:04.483	0.731510
15:42:04.883	0.773959
15:42:05.183	0.784910
15:42:05.583	0.800328
15:42:05.883	0.831187
15:42:06.283	0.835686
15:42:06.583	0.846747
15:42:06.883	0.853822
15:42:07.282	0.841891
15:42:07.683	0.833855
15:42:07.983	0.786596
15:42:08.283	0.816658
15:42:08.683	0.837573
15:42:08.982	0.850722
15:42:09.383	0.866283
15:42:09.683	0.898722
15:42:09.983	0.924336
15:42:10.383	0.959056
15:42:10.683	0.998231
15:42:10.982	1.027449
15:42:11.382	1.129878
15:42:11.683	1.187169
15:42:12.083	1.264126
15:42:12.383	1.291306
15:42:12.783	1.384639
15:42:13.082	1.437757
15:42:13.483	1.580500
15:42:13.783	1.681652
15:42:14.083	1.731165
15:42:14.483	1.913737
15:42:14.783	2.018350
15:42:15.083	2.077720
15:42:15.483	2.161503
15:42:15.782	2.474540
15:42:17.083	2.492589
15:42:17.382	2.515679
15:42:17.682	2.529337
15:42:18.083	2.472040
15:42:18.382	2.488927
15:42:18.782	2.506849
15:42:19.083	2.622778
15:42:19.483	2.547641
15:42:19.782	2.560051
15:42:20.183	2.381353
15:42:20.483	2.353226
15:42:20.783	2.422758
15:42:21.183	2.370867
15:42:21.483	2.388588
15:42:21.783	2.442604
15:42:22.183	2.402993
15:42:22.483	2.377314
15:42:22.783	2.333611
15:42:23.183	2.271567
15:42:23.483	2.255517
15:42:23.782	2.161101
15:42:24.182	2.116898
15:42:24.483	2.082373
15:42:24.783	1.946216
15:42:26.083	1.910839
15:42:26.383	1.922440
15:42:26.683	1.839604
15:42:27.083	1.745144
15:42:27.383	1.773949
15:42:27.782	1.858180
15:42:28.083	1.816128
15:42:28.483	1.890749
15:42:28.783	1.907154
15:42:29.083	1.923863
15:42:29.483	1.908797
15:42:29.783	1.853545
15:42:30.082	1.871789
15:42:30.483	1.828428
15:42:30.783	1.777625
15:42:31.083	1.816817
15:42:31.483	1.798554
15:42:31.783	1.799735
15:42:32.083	1.817218
15:42:32.483	1.920155
15:42:32.783	1.950797
15:42:33.083	1.927800
15:42:33.483	1.865562
15:42:33.783	1.875661
15:42:34.083	1.902390
15:42:34.483	1.935022
15:42:34.782	1.907386
15:42:35.183	1.669474
15:42:35.483	1.638180
15:42:35.883	1.620399
15:42:36.182	1.700808
15:42:36.583	1.704608
15:42:36.884	1.729730
15:42:37.183	1.677858
15:42:37.582	1.890434
15:42:37.882	1.774991
15:42:38.183	1.799351
15:42:38.583	1.864248
15:42:38.883	1.808139
15:42:39.182	1.899301
15:42:39.583	1.864135
15:42:39.883	1.905525
15:42:40.183	1.869628
15:42:40.582	1.843749
15:42:40.883	1.837717
15:42:41.183	1.808359
15:42:41.582	1.891223
15:42:41.882	1.956641
15:42:42.283	1.967783
15:42:42.583	1.967787
15:42:42.883	1.888730
15:42:43.283	1.945112
15:42:43.583	1.942818
15:42:43.883	1.859422
15:42:44.283	1.705275
15:42:44.583	1.728631
15:42:44.883	1.801898
15:42:45.283	1.938313
15:42:45.583	1.965781
15:42:45.984	1.938831
15:42:46.283	1.862163
15:42:46.682	1.942182
15:42:46.984	1.831985
15:42:47.283	1.832160
15:42:47.683	1.755239
15:42:47.983	1.898004
15:42:48.283	1.937450
15:42:48.683	1.931809
15:42:48.983	2.022406
15:42:49.283	2.007699
15:42:49.683	2.048435
15:42:49.983	2.028017
15:42:50.384	2.040480
15:42:50.683	2.039986
15:42:50.983	1.922372
15:42:51.383	1.855419
15:42:51.683	1.853311
15:42:51.983	1.948857
15:42:52.382	2.027540
15:42:52.682	2.107170
15:42:52.983	2.149851
15:42:53.383	2.116182
15:42:53.683	2.738106
15:42:54.983	2.878766
15:42:55.284	2.869681
15:42:55.583	2.906953
15:42:55.983	3.144405
15:42:56.282	3.350741
15:42:56.683	3.427728
15:42:56.983	3.464036
15:42:57.283	3.483355
15:42:57.683	3.625973
15:42:57.983	3.672535
15:42:58.283	3.710472
15:42:58.683	3.752609
15:42:58.982	3.636500
15:42:59.284	3.587816
15:42:59.683	3.653290
15:42:59.983	3.850825
15:43:00.282	3.631810
15:43:00.683	3.673170
15:43:00.983	3.586934
15:43:01.283	3.652890
15:43:01.683	3.586146
15:43:01.983	3.466211
15:43:02.283	3.255540
15:43:02.682	3.189420
15:43:02.983	3.215612
15:43:03.383	3.036395
15:43:03.683	2.874337
15:43:04.083	2.717904
15:43:04.383	2.673622
15:43:04.783	2.650726
15:43:05.083	2.363835
15:43:05.383	2.108942
15:43:05.783	2.101651
15:43:06.083	2.239516
15:43:06.383	2.165791
15:43:06.783	2.011331
15:43:07.083	1.971976
15:43:08.383	1.746663
15:43:08.683	1.693163
15:43:09.083	1.688704
15:43:09.383	1.583207
15:43:09.683	1.706814
15:43:10.083	1.683248
15:43:10.382	1.576894
15:43:10.783	1.595631
15:43:11.083	1.574885
15:43:11.483	1.592845
15:43:11.783	1.581398
15:43:12.083	1.653356
15:43:12.483	1.490835
15:43:12.783	1.515743
15:43:13.084	1.517132
15:43:13.483	1.468228
15:43:13.783	1.442770
15:43:14.083	1.265918
15:43:14.483	1.217130
15:43:14.783	1.360521
15:43:15.083	1.278866
15:43:15.483	1.301998
15:43:15.783	1.316617
15:43:16.083	1.235093
15:43:16.483	1.216151
15:43:16.783	1.263096
15:43:17.083	1.204381
15:43:17.483	1.231924
15:43:17.783	1.227087
15:43:18.084	1.096164
15:43:18.483	1.056350
15:43:18.783	1.031337
15:43:19.083	1.054972
15:43:19.483	1.086527
15:43:19.784	1.021947
15:43:20.083	1.034113
15:43:20.483	1.078933
15:43:20.783	0.992621
15:43:21.083	1.102906
15:43:21.483	1.126193
15:43:21.783	1.173870
15:43:22.083	1.173601
15:43:22.483	1.154095
15:43:22.783	1.141825
15:43:23.083	1.134816
15:43:23.483	1.176815
15:43:23.783	1.165398
15:43:24.083	1.125725
15:43:24.484	1.093504
15:43:24.783	1.021633
15:43:25.183	0.981806
15:43:25.483	0.840942
15:43:25.883	0.815643
15:43:26.183	0.860315
15:43:26.483	0.867792
15:43:26.883	0.847217
15:43:27.183	0.865921
15:43:27.483	0.948520
15:43:27.883	0.921843
15:43:28.183	0.944256
15:43:28.483	0.975227
15:43:28.883	1.064733
15:43:29.183	1.074014
15:43:29.483	1.025418
15:43:29.883	1.083205
15:43:30.183	1.085033
15:43:30.483	1.079617
15:43:30.883	1.067908
15:43:31.183	1.041511
15:43:31.483	0.960816
15:43:31.883	1.012359
15:43:32.183	1.017411
15:43:32.583	1.025126
15:43:32.884	0.988209
15:43:33.183	0.909308
15:43:33.583	0.900664
15:43:33.883	0.996743
15:43:34.283	1.026541
15:43:34.584	1.008412
15:43:34.883	1.009660
15:43:35.283	0.999412
15:43:35.584	1.020364
15:43:35.884	1.030912
15:43:36.283	1.021897
15:43:36.583	0.976636
15:43:36.983	0.908487
15:43:37.283	0.923972
15:43:37.684	0.933795
15:43:37.983	0.902260
15:43:38.283	0.930755
15:43:38.684	0.947476
15:43:38.983	0.963422
15:43:39.383	0.892964
15:43:39.684	0.874646
15:43:40.083	0.890154
15:43:40.384	0.956505
15:43:40.683	0.976347
15:43:41.084	0.920036
15:43:41.383	0.954782
15:43:41.783	0.930655
15:43:42.084	0.956623
15:43:42.384	0.938540
15:43:42.783	1.088987
15:43:43.083	1.086385
15:43:43.483	1.093082
15:43:43.783	1.091508
15:43:44.083	1.082958
15:43:44.483	1.063902
15:43:44.783	1.065649
15:43:45.083	1.045822
15:43:45.484	1.061204
15:43:45.783	1.034444
15:43:46.183	1.053463
15:43:46.483	1.068454
15:43:46.884	0.956142
15:43:47.183	0.950932
15:43:47.483	1.123240
15:43:47.884	1.132230
15:43:48.184	1.086763
15:43:48.483	1.069133
15:43:48.883	1.133607
15:43:49.184	1.139866
15:43:49.484	1.062389
15:43:49.884	1.102936
15:43:50.183	1.020049
15:43:50.484	0.939287
15:43:50.883	1.042841
15:43:51.183	0.984509
15:43:51.583	1.027582
15:43:51.883	1.061028
15:43:52.283	1.062932
15:43:52.583	1.085112
15:43:52.983	1.090754
15:43:53.283	1.091811
15:43:53.684	1.100985
15:43:53.984	1.059236
15:43:54.283	1.046114
15:43:54.683	1.078306
15:43:54.984	1.041502
15:43:55.284	0.998243
15:43:55.683	0.980186
15:43:55.983	0.918789
15:43:56.283	0.930086
15:43:56.683	1.010370
15:43:56.984	0.950652
15:43:57.284	0.980154
15:43:57.683	0.919002
15:43:57.983	0.945485
15:43:58.283	0.981547
15:43:58.684	0.973704
15:43:58.984	0.981263
15:43:59.284	1.016889
15:43:59.683	1.014881
15:43:59.984	1.017278
15:44:00.384	0.832490
15:44:00.684	0.902378
15:44:01.084	0.988468
15:44:01.384	0.997824
15:44:01.683	0.976461
15:44:02.083	0.972532
15:44:02.384	1.009072
15:44:02.684	1.001835
15:44:03.084	0.994884
15:44:03.383	1.003398
15:44:03.683	1.006281
15:44:04.083	0.991831
15:44:04.384	0.943958
15:44:04.684	0.846867
15:44:05.084	0.824042
15:44:05.384	0.794731
15:44:05.684	0.827359
15:44:06.083	0.943868
15:44:06.384	0.977698
15:44:06.684	0.958644
15:44:07.085	0.927076
15:44:07.384	0.897661
15:44:07.783	0.897301
15:44:08.184	1.060580
15:44:08.483	1.039572
15:44:08.883	0.973472
15:44:09.184	1.044505
15:44:09.484	1.098377
15:44:09.883	1.077680
15:44:10.183	1.135915
15:44:10.483	1.085873
15:44:10.883	1.030012
15:44:11.183	1.131942
15:44:11.484	1.189107
15:44:11.885	1.224408
15:44:12.183	1.190000
15:44:12.484	1.181114
15:44:12.884	1.194048
15:44:13.183	1.171369
15:44:13.484	1.091964
15:44:13.884	1.100168
15:44:14.184	1.087281
15:44:14.584	0.981384
15:44:14.884	0.942965
15:44:15.185	0.933635
15:44:15.584	0.975151
15:44:15.884	1.041027
15:44:16.284	1.084041
15:44:16.583	1.065777
15:44:16.984	1.043054
15:44:17.284	1.002288
15:44:17.584	1.009705
15:44:17.983	1.021716
15:44:18.283	0.991811
15:44:18.584	0.974670
15:44:18.983	0.970868
15:44:19.283	0.975638
15:44:19.584	1.004597
15:44:19.983	1.052888
15:44:20.283	1.052828
15:44:20.583	1.030424
15:44:20.984	1.036063
15:44:21.283	1.031707
15:44:21.684	1.031577
15:44:21.984	1.049009
15:44:22.284	1.055477
15:44:22.684	1.048876
15:44:22.984	0.991723
15:44:23.384	1.089742
15:44:23.683	1.079686
15:44:23.984	1.014834
15:44:24.384	0.992627
15:44:24.684	0.999067
15:44:25.084	1.005067
15:44:25.384	1.078921
15:44:25.684	1.063407
15:44:26.083	1.013990
15:44:26.383	0.938743
15:44:26.684	0.942281
15:44:27.083	1.029254
15:44:27.384	1.082687
15:44:27.684	1.156082
15:44:28.084	1.143263
15:44:28.384	1.180560
15:44:28.784	1.193997
15:44:29.084	1.206368
15:44:29.484	1.201729
15:44:29.783	1.208863
15:44:30.184	1.234025
15:44:30.483	1.239044
15:44:30.784	1.252058
15:44:31.183	1.256311
15:44:31.484	1.287155
15:44:31.783	1.283161
15:44:32.184	1.286449
15:44:32.484	1.239969
15:44:32.783	1.206068
15:44:33.184	1.228641
15:44:33.484	1.222172
15:44:33.784	1.229605
15:44:34.184	1.280121
15:44:34.484	1.255219
15:44:34.783	1.247353
15:44:35.184	1.287185
15:44:35.484	1.284765
15:44:35.784	1.300510
15:44:36.183	1.284134
15:44:36.484	1.279760
15:44:36.784	1.274493
15:44:37.184	1.274951
15:44:37.483	1.273038
15:44:37.784	1.292729
15:44:38.183	1.297147
15:44:38.484	1.292529
15:44:38.784	1.308644
15:44:39.184	1.346802
15:44:39.484	1.377136
15:44:39.883	1.342319
15:44:40.184	1.279142
15:44:40.584	1.273622
15:44:40.883	1.276007
15:44:41.183	1.265353
15:44:41.583	1.255938
15:44:41.884	1.260800
15:44:42.283	1.257951
15:44:42.583	1.250472
15:44:42.883	1.246484
15:44:43.283	1.255568
15:44:43.583	1.226920
15:44:43.883	1.189170
15:44:44.284	1.172464
15:44:44.584	1.120657
15:44:44.884	1.117897
15:44:45.283	1.097224
15:44:45.584	1.087705
15:44:45.884	1.091568
15:44:46.284	1.098113
15:44:46.584	1.052947
15:44:46.884	1.062651
15:44:47.284	1.039411
15:44:47.583	1.053505
15:44:47.884	1.043641
15:44:48.284	1.018906
15:44:48.584	1.004272
15:44:48.984	0.991803
15:44:49.283	1.006163
15:44:49.683	0.994900
15:44:49.984	1.003421
15:44:50.284	1.026288
15:44:50.684	1.008293
15:44:50.984	0.935674
15:44:51.384	0.865392
15:44:51.683	0.843361
15:44:51.984	0.833758
15:44:52.384	0.896358
15:44:52.684	0.912686
15:44:52.984	0.867723
15:44:53.384	0.777851
15:44:53.684	0.700281
15:44:53.985	0.684293
15:44:54.383	0.715192
15:44:54.684	0.712137
15:44:54.984	0.712285
15:44:55.384	0.717718
15:44:55.683	0.764519
15:44:56.084	0.791268
15:44:56.384	0.728573
15:44:56.683	0.711374
15:44:57.084	0.742679
15:44:57.384	0.788811
15:44:57.684	0.774878
15:44:58.083	0.792087
15:44:58.384	0.817520
15:44:58.684	0.865298
15:44:59.083	0.813069
15:44:59.383	0.897317
15:44:59.683	0.888401
15:45:00.083	0.879265
15:45:00.384	0.851149
15:45:00.684	0.866261
15:45:01.083	0.811051
15:45:01.383	0.803936
15:45:01.784	0.788789
15:45:02.083	0.775185
15:45:02.484	0.798352
15:45:02.783	0.810394
15:45:03.183	0.791520
15:45:03.485	0.812740
15:45:03.784	0.814646
15:45:04.183	0.796285
15:45:04.484	0.783302
15:45:04.784	0.784280
15:45:05.184	0.793492
15:45:05.484	0.806054
15:45:05.783	0.774320
15:45:06.184	0.777363
15:45:06.484	0.828162
15:45:06.784	0.826661
15:45:07.184	0.827650
15:45:07.483	0.806343
15:45:07.784	0.839176
15:45:08.183	0.858261
15:45:08.483	0.869278
15:45:08.883	0.905113
15:45:09.183	0.897421
15:45:09.583	0.900172
15:45:09.884	0.841690
15:45:10.284	0.756385
15:45:10.583	0.840114
15:45:10.984	0.830728
15:45:11.283	0.820285
15:45:11.683	0.809954
15:45:11.985	0.764001
15:45:12.384	0.732307
15:45:12.684	0.729133
15:45:12.983	0.691127
15:45:13.383	0.690788
15:45:13.683	0.714239
15:45:13.984	0.698916
15:45:14.383	0.699841
15:45:14.683	0.662254
15:45:14.984	0.694209
15:45:15.384	0.666449
15:45:15.684	0.671117
15:45:15.984	0.673795
15:45:16.384	0.682878
15:45:16.684	0.627234
15:45:17.084	0.537182
15:45:17.384	0.521656
15:45:17.784	0.531498
15:45:18.084	0.541485
15:45:18.383	0.544304
15:45:18.784	0.554572
15:45:19.084	0.564619
15:45:19.384	0.578684
15:45:19.784	0.572754
15:45:20.083	0.553623
15:45:20.384	0.584564
15:45:20.784	0.653155
15:45:21.084	0.700090
15:45:21.483	0.643075
15:45:21.783	0.654881
15:45:22.084	0.628587
15:45:22.484	0.628094
15:45:22.784	0.689483
15:45:23.083	0.714554
15:45:23.483	0.734150
15:45:23.784	0.821610
15:45:24.183	0.805708
15:45:24.484	0.789489
15:45:24.884	0.809023
15:45:25.184	0.810248
15:45:25.584	0.803215
15:45:25.883	0.789895
15:45:26.184	0.810305
15:45:26.584	0.814809
15:45:26.884	0.818737
15:45:27.183	0.833423
15:45:27.584	0.838287
15:45:27.884	0.831119
15:45:28.183	0.834396
15:45:28.583	0.789012
15:45:28.884	0.777838
15:45:29.184	0.672056
15:45:29.583	0.692788
15:45:29.884	0.698982
15:45:30.183	0.701994
15:45:30.583	0.657396
15:45:30.884	0.650147
15:45:31.283	0.728884
15:45:31.584	0.745414
15:45:31.884	0.691671
15:45:32.284	0.704505
15:45:32.584	0.687335
15:45:32.884	0.689657
15:45:33.284	0.746514
15:45:33.584	0.759366
15:45:33.884	0.759651
15:45:34.284	0.803765
15:45:34.584	0.946854
15:45:34.883	0.965688
15:45:35.284	0.932649
15:45:35.583	0.922829
15:45:35.883	0.870329
15:45:36.284	0.859442
15:45:36.584	0.868360
15:45:36.884	0.952551
15:45:37.284	0.965294
15:45:37.585	0.965581
15:45:37.984	0.956238
15:45:38.283	0.936035
15:45:38.684	0.866455
15:45:38.983	0.895397
15:45:39.384	0.918845
15:45:39.684	0.897868
15:45:40.083	0.945539
15:45:40.383	0.900433
15:45:40.684	0.890671
15:45:41.084	0.862143
15:45:41.384	0.773204
15:45:41.784	0.819336
15:45:42.084	0.835221
15:45:42.384	0.775839
15:45:42.783	0.772604
15:45:43.083	0.781022
15:45:43.484	0.811378
15:45:43.783	0.859827
15:45:44.084	0.829975
15:45:44.483	0.874982
15:45:44.784	0.825956
15:45:45.184	0.765978
15:45:45.484	0.774918
15:45:45.884	0.821746
15:45:46.184	0.791727
15:45:46.484	0.790031
15:45:46.884	0.795695
15:45:47.184	0.862348
15:45:47.584	0.856269
15:45:47.884	0.899271
15:45:48.184	0.913179
15:45:48.584	0.943923
15:45:48.884	0.937027
15:45:49.284	0.921466
15:45:49.584	0.913688
15:45:49.884	0.899683
15:45:50.284	0.858719
15:45:50.583	0.838104
15:45:50.884	0.855545
15:45:51.283	0.746859
15:45:51.584	0.651589
15:45:51.984	0.690036
15:45:52.283	0.728906
15:45:52.684	0.845684
15:45:52.983	0.858426
15:45:53.284	0.807152
15:45:53.684	0.806017
15:45:53.984	0.781124
15:45:54.283	0.795664
15:45:54.684	0.781525
15:45:54.984	0.806666
15:45:55.284	0.794649
15:45:55.684	0.778780
15:45:55.984	0.756037
15:45:56.284	0.737631
15:45:56.684	0.752528
15:45:56.984	0.725062
15:45:57.383	0.702785
15:45:57.684	0.698744
15:45:57.984	0.688403
15:45:58.384	0.721828
15:45:58.683	0.707031
15:45:59.084	0.727648
15:45:59.384	0.765008
15:45:59.784	0.719923
15:46:00.084	0.714663
15:46:00.384	0.708577
15:46:00.784	0.758624
15:46:01.084	0.756920
15:46:01.384	0.695703
15:46:01.784	0.728057
15:46:02.083	0.738753
15:46:02.383	0.681992
15:46:02.784	0.709278
15:46:03.084	0.720743
15:46:03.384	0.675350
15:46:03.784	0.774859
15:46:04.084	0.791018
15:46:04.384	0.796314
15:46:04.784	0.786739
15:46:05.084	0.823233
15:46:05.384	0.809733
15:46:05.784	0.826523
15:46:06.083	0.783900
15:46:06.484	0.744689
15:46:06.784	0.755752
15:46:07.084	0.707638
15:46:07.484	0.751625
15:46:07.784	0.795077
15:46:08.184	0.820152
15:46:08.483	0.805063
15:46:08.884	0.784373
15:46:09.184	0.758765
15:46:09.484	0.781295
15:46:09.884	0.826403
15:46:10.184	0.807920
15:46:10.484	0.778774
15:46:10.884	0.738501