Chart Recorder Data File Fri, Sep 20, 2024 2:55 PM
Time (s)	CH1 (V)  
14:46:14.265	0.793547
14:46:15.165	0.798218
14:46:15.465	0.802105
14:46:15.764	0.792491
14:46:16.165	0.779632
14:46:16.464	0.753122
14:46:16.765	0.761818
14:46:17.165	0.771453
14:46:17.465	0.788295
14:46:17.765	0.784371
14:46:18.164	0.769512
14:46:18.465	0.783767
14:46:18.764	0.779269
14:46:19.165	0.769824
14:46:19.466	0.773946
14:46:19.765	0.773982
14:46:20.164	0.779852
14:46:20.465	0.782529
14:46:20.865	0.784066
14:46:21.164	0.764628
14:46:21.465	0.754269
14:46:21.865	0.764161
14:46:22.165	0.765747
14:46:22.565	0.763763
14:46:22.865	0.765653
14:46:23.165	0.765093
14:46:23.565	0.768271
14:46:23.865	0.769539
14:46:24.265	0.770160
14:46:24.564	0.791973
14:46:24.865	0.776459
14:46:25.264	0.731258
14:46:25.565	0.769056
14:46:25.864	0.775304
14:46:26.264	0.747002
14:46:26.565	0.790815
14:46:26.865	0.804943
14:46:27.265	0.771991
14:46:27.565	0.793638
14:46:27.964	0.768772
14:46:28.265	0.772985
14:46:28.564	0.796814
14:46:28.964	0.808593
14:46:29.265	0.812222
14:46:29.565	0.812785
14:46:29.965	0.787186
14:46:30.264	0.761287
14:46:30.565	0.769403
14:46:30.965	0.775140
14:46:31.365	0.784815
14:46:31.665	0.786481
14:46:31.964	0.763428
14:46:32.365	0.736495
14:46:32.666	0.768188
14:46:32.964	0.787613
14:46:33.365	0.774762
14:46:33.665	0.781550
14:46:33.965	0.790230
14:46:34.365	0.813069
14:46:34.665	0.842655
14:46:34.965	0.834688
14:46:35.365	0.786207
14:46:35.664	0.826084
14:46:35.964	0.817548
14:46:36.365	0.809298
14:46:36.664	0.797073
14:46:36.964	0.802299
14:46:37.365	0.788096
14:46:37.664	0.767435
14:46:38.065	0.797576
14:46:38.365	0.788506
14:46:38.765	0.803891
14:46:39.065	0.811208
14:46:39.366	0.796560
14:46:39.765	0.786451
14:46:40.064	0.775453
14:46:40.465	0.772454
14:46:40.765	0.776419
14:46:41.165	0.773320
14:46:41.465	0.782197
14:46:41.865	0.774657
14:46:42.164	0.784474
14:46:42.465	0.791814
14:46:42.865	0.798185
14:46:43.165	0.787366
14:46:43.465	0.786964
14:46:43.865	0.795507
14:46:44.165	0.789227
14:46:44.564	0.779894
14:46:44.865	0.815832
14:46:45.265	0.828758
14:46:45.566	0.803812
14:46:45.865	0.785161
14:46:46.265	0.792033
14:46:46.565	0.786747
14:46:46.865	0.755739
14:46:47.264	0.784803
14:46:47.565	0.794129
14:46:47.965	0.797481
14:46:48.265	0.803739
14:46:48.665	0.798476
14:46:48.965	0.800432
14:46:49.364	0.831565
14:46:49.665	0.820282
14:46:49.965	0.814455
14:46:50.365	0.833967
14:46:50.665	0.825914
14:46:50.965	0.821660
14:46:51.366	0.821627
14:46:51.664	0.810955
14:46:52.064	0.848956
14:46:52.365	0.851174
14:46:52.765	0.854640
14:46:53.065	0.838316
14:46:53.465	0.834130
14:46:53.765	0.843425
14:46:54.065	0.844982
14:46:54.464	0.819625
14:46:54.765	0.808408
14:46:55.065	0.796884
14:46:55.466	0.818774
14:46:55.765	0.831399
14:46:56.065	0.829314
14:46:56.465	0.824713
14:46:56.764	0.831334
14:46:57.065	0.838281
14:46:57.465	0.844428
14:46:57.765	0.832549
14:46:58.065	0.825574
14:46:58.465	0.812714
14:46:58.765	0.817906
14:46:59.064	0.810275
14:46:59.465	0.813084
14:46:59.765	0.838713
14:47:00.065	0.838043
14:47:00.465	0.850995
14:47:00.765	0.850956
14:47:01.065	0.844134
14:47:01.465	0.842053
14:47:01.765	0.844727
14:47:02.165	0.840409
14:47:02.465	0.851679
14:47:02.865	0.822524
14:47:03.165	0.799835
14:47:03.465	0.797941
14:47:03.866	0.807478
14:47:04.165	0.818815
14:47:04.465	0.833301
14:47:04.865	0.846559
14:47:05.165	0.853911
14:47:05.565	0.865206
14:47:05.865	0.854904
14:47:06.265	0.848367
14:47:06.565	0.841966
14:47:06.865	0.812812
14:47:07.265	0.822409
14:47:07.566	0.841500
14:47:07.865	0.835713
14:47:08.265	0.821713
14:47:08.565	0.818726
14:47:08.865	0.827075
14:47:09.264	0.824999
14:47:09.565	0.817624
14:47:09.965	0.804932
14:47:10.265	0.800547
14:47:10.664	0.788649
14:47:10.965	0.803089
14:47:11.365	0.783279
14:47:11.665	0.772040
14:47:11.965	0.798649
14:47:12.364	0.814427
14:47:12.665	0.822192
14:47:12.965	0.827822
14:47:13.365	0.815558
14:47:13.665	0.832128
14:47:13.965	0.838156
14:47:14.365	0.838105
14:47:14.665	0.833312
14:47:14.965	0.820292
14:47:15.365	0.805076
14:47:15.665	0.827597
14:47:16.065	0.799013
14:47:16.366	0.791010
14:47:16.765	0.810297
14:47:17.065	0.827209
14:47:17.465	0.817666
14:47:17.765	0.822737
14:47:18.065	0.829087
14:47:18.464	0.832368
14:47:18.765	0.814822
14:47:19.065	0.829964
14:47:19.465	0.831897
14:47:19.765	0.845046
14:47:20.065	0.897942
14:47:20.465	0.921338
14:47:20.764	0.911523
14:47:21.065	0.886987
14:47:21.465	0.872631
14:47:21.765	0.866245
14:47:22.065	0.865427
14:47:22.465	0.884930
14:47:22.765	0.892860
14:47:23.065	0.874314
14:47:23.465	0.856150
14:47:23.765	0.859569
14:47:24.165	0.847648
14:47:24.465	0.837755
14:47:24.765	0.843942
14:47:25.165	0.849563
14:47:25.465	0.831942
14:47:25.865	0.828183
14:47:26.164	0.815823
14:47:26.465	0.805887
14:47:26.865	0.793347
14:47:27.164	0.790024
14:47:27.565	0.823876
14:47:27.864	0.829299
14:47:28.165	0.838175
14:47:28.564	0.820756
14:47:28.865	0.803884
14:47:29.164	0.811660
14:47:29.565	0.833913
14:47:29.865	0.839924
14:47:30.264	0.814079
14:47:30.565	0.842147
14:47:30.965	0.857554
14:47:31.265	0.877388
14:47:31.566	0.872745
14:47:31.964	0.872212
14:47:32.265	0.869090
14:47:32.565	0.859130
14:47:32.965	0.900092
14:47:33.265	0.897877
14:47:33.665	0.926742
14:47:33.965	0.940772
14:47:34.365	0.915992
14:47:34.666	0.876481
14:47:34.966	0.867647
14:47:35.365	0.858722
14:47:35.665	0.840675
14:47:35.966	0.839563
14:47:36.365	0.830985
14:47:36.665	0.853042
14:47:37.065	0.847585
14:47:37.365	0.843134
14:47:37.765	0.848858
14:47:38.065	0.861775
14:47:38.465	0.848443
14:47:38.765	0.847352
14:47:39.165	0.838527
14:47:39.465	0.820097
14:47:39.765	0.809827
14:47:40.165	0.798262
14:47:40.465	0.778989
14:47:40.865	0.775426
14:47:41.165	0.794656
14:47:41.565	0.786956
14:47:41.865	0.794708
14:47:42.165	0.800995
14:47:42.565	0.809619
14:47:42.865	0.812575
14:47:43.165	0.795225
14:47:43.565	0.775433
14:47:43.865	0.774238
14:47:44.265	0.784707
14:47:44.565	0.778761
14:47:44.965	0.780030
14:47:45.265	0.798426
14:47:45.565	0.822475
14:47:45.965	0.825274
14:47:46.265	0.829394
14:47:46.665	0.830875
14:47:46.965	0.812725
14:47:47.265	0.796942
14:47:47.665	0.786558
14:47:47.965	0.793019
14:47:48.365	0.798299
14:47:48.665	0.797929
14:47:48.965	0.799574
14:47:49.365	0.808852
14:47:49.665	0.811421
14:47:50.065	0.798640
14:47:50.365	0.810803
14:47:50.665	0.832865
14:47:51.065	0.834040
14:47:51.366	0.835641
14:47:51.765	0.848208
14:47:52.065	0.848399
14:47:52.465	0.846647
14:47:52.766	0.849694
14:47:53.065	0.851861
14:47:53.465	0.830241
14:47:53.765	0.827014
14:47:54.165	0.842323
14:47:54.465	0.837140
14:47:54.766	0.840675
14:47:55.165	0.835745
14:47:55.566	0.838650
14:47:55.865	0.841729
14:47:56.165	0.828778
14:47:56.565	0.819757
14:47:56.865	0.821907
14:47:57.165	0.832491
14:47:57.565	0.823483
14:47:57.866	0.827111
14:47:58.265	0.832454
14:47:58.565	0.822198
14:47:58.966	0.838204
14:47:59.265	0.844458
14:47:59.565	0.854920
14:47:59.965	0.853816
14:48:00.265	0.851885
14:48:00.665	0.847187
14:48:00.965	0.835533
14:48:01.265	0.821734
14:48:01.665	0.851366
14:48:01.965	0.851564
14:48:02.365	0.842045
14:48:02.665	0.841945
14:48:03.065	0.841879
14:48:03.365	0.860472
14:48:03.666	0.847170
14:48:04.065	0.845901
14:48:04.365	0.837793
14:48:04.665	0.831253
14:48:05.065	0.838549
14:48:05.365	0.838642
14:48:05.765	0.841336
14:48:06.065	0.840520
14:48:06.465	0.840656
14:48:06.766	0.853210
14:48:07.065	0.860266
14:48:07.465	0.861773
14:48:07.765	0.846873
14:48:08.165	0.835589
14:48:08.465	0.847878
14:48:08.766	0.848985
14:48:09.165	0.843999
14:48:09.465	0.860503
14:48:09.865	0.842567
14:48:10.165	0.835009
14:48:10.466	0.819745
14:48:10.865	0.813885
14:48:11.165	0.819665
14:48:11.466	0.816341
14:48:11.865	0.809780
14:48:12.165	0.829453
14:48:12.566	0.839850
14:48:12.865	0.846996
14:48:13.265	0.836299
14:48:13.567	0.843819
14:48:13.966	0.852311
14:48:14.265	0.846464
14:48:14.566	0.839490
14:48:14.965	0.854832
14:48:15.265	0.857195
14:48:15.565	0.836870
14:48:15.965	0.817517
14:48:16.265	0.810866
14:48:16.666	0.817291
14:48:16.966	0.827829
14:48:17.366	0.837459
14:48:17.666	0.847067
14:48:18.066	0.846198
14:48:18.365	0.865584
14:48:18.666	0.840124
14:48:19.066	0.832986
14:48:19.365	0.826713
14:48:19.766	0.824988
14:48:20.065	0.859986
14:48:20.366	0.872188
14:48:20.766	0.869607
14:48:21.065	0.848613
14:48:21.365	0.841792
14:48:21.766	0.842251
14:48:22.065	0.825220
14:48:22.365	0.840165
14:48:22.765	0.843471
14:48:23.066	0.845981
14:48:23.366	0.858472
14:48:23.765	0.876646
14:48:24.066	0.885612
14:48:24.365	0.876298
14:48:24.765	0.878561
14:48:25.065	0.915554
14:48:25.366	0.941811
14:48:25.767	0.948801
14:48:26.066	0.938303
14:48:26.465	0.936856
14:48:26.765	0.931589
14:48:27.165	0.910540
14:48:27.466	0.917790
14:48:27.765	0.938345
14:48:28.166	0.928238
14:48:28.466	0.938885
14:48:28.865	0.921552
14:48:29.165	0.915175
14:48:29.465	0.903927
14:48:29.866	0.914107
14:48:30.166	0.931130
14:48:30.566	0.935936
14:48:30.866	0.913513
14:48:31.265	0.916000
14:48:31.567	0.923653
14:48:31.965	0.931704
14:48:32.265	0.949727
14:48:32.566	0.971410
14:48:32.965	1.010056
14:48:33.266	1.020578
14:48:33.666	1.022090
14:48:33.965	1.003690
14:48:34.365	1.052115
14:48:34.666	1.094711
14:48:34.966	1.115930
14:48:35.365	1.132138
14:48:35.666	1.143425
14:48:35.965	1.137373
14:48:36.366	1.162242
14:48:36.666	1.215488
14:48:37.066	1.243555
14:48:37.365	1.247498
14:48:37.765	1.259847
14:48:38.065	1.301603
14:48:38.367	1.319250
14:48:38.766	1.337218
14:48:39.066	1.395042
14:48:39.465	1.449933
14:48:39.766	1.477088
14:48:40.165	1.490731
14:48:40.465	1.513336
14:48:40.865	1.569869
14:48:41.166	1.577116
14:48:41.465	1.580413
14:48:41.866	1.585011
14:48:42.166	1.593591
14:48:42.466	1.574597
14:48:42.865	1.541881
14:48:43.166	1.517673
14:48:43.466	1.502412
14:48:43.866	1.487787
14:48:44.166	1.492898
14:48:44.466	1.467186
14:48:44.865	1.449213
14:48:45.167	1.426138
14:48:45.465	1.410968
14:48:45.865	1.383206
14:48:46.166	1.330138
14:48:46.466	1.308950
14:48:46.866	1.258064
14:48:47.166	1.248662
14:48:47.565	1.289576
14:48:47.865	1.279089
14:48:48.266	1.259148
14:48:48.565	1.252298
14:48:48.866	1.226024
14:48:49.266	1.199251
14:48:49.565	1.170003
14:48:49.865	1.163850
14:48:50.266	1.137315
14:48:50.566	1.142752
14:48:50.965	1.131094
14:48:51.266	1.124919
14:48:51.665	1.111472
14:48:51.966	1.106778
14:48:52.266	1.123351
14:48:52.666	1.115853
14:48:52.966	1.104485
14:48:53.365	1.109212
14:48:53.665	1.110383
14:48:53.966	1.095320
14:48:54.366	1.100304
14:48:54.666	1.101436
14:48:55.065	1.119642
14:48:55.366	1.127370
14:48:55.765	1.154028
14:48:56.066	1.148376
14:48:56.366	1.117028
14:48:56.766	1.121123
14:48:57.066	1.127274
14:48:57.466	1.128354
14:48:57.765	1.118784
14:48:58.166	1.152119
14:48:58.466	1.154627
14:48:58.865	1.146160
14:48:59.166	1.171066
14:48:59.565	1.154623
14:48:59.866	1.152580
14:49:00.266	1.143520
14:49:00.565	1.112089
14:49:00.865	1.105175
14:49:01.265	1.136146
14:49:01.565	1.171729
14:49:01.965	1.184675
14:49:02.266	1.196973
14:49:02.566	1.225505
14:49:02.966	1.175026
14:49:03.265	1.167338
14:49:03.565	1.151577
14:49:03.966	1.164528
14:49:04.266	1.170802
14:49:04.566	1.168510
14:49:04.965	1.161967
14:49:05.266	1.148223
14:49:05.665	1.122922
14:49:05.966	1.131861
14:49:06.366	1.136874
14:49:06.665	1.126103
14:49:06.966	1.139371
14:49:07.366	1.135046
14:49:07.667	1.110196
14:49:07.965	1.087538
14:49:08.366	1.089010
14:49:08.666	1.092281
14:49:09.065	1.108694
14:49:09.366	1.117287
14:49:09.766	1.126104
14:49:10.066	1.138065
14:49:10.366	1.137575
14:49:10.766	1.154798
14:49:11.065	1.121083
14:49:11.465	1.117123
14:49:11.765	1.116657
14:49:12.066	1.097950
14:49:12.466	1.092655
14:49:12.766	1.089831
14:49:13.166	1.084188
14:49:13.466	1.095206
14:49:13.765	1.093135
14:49:14.166	1.058745
14:49:14.465	1.038619
14:49:14.766	1.036414
14:49:15.166	1.026462
14:49:15.466	1.028196
14:49:15.866	1.017568
14:49:16.166	1.009505
14:49:16.566	1.010530
14:49:16.866	1.001614
14:49:17.266	0.953567
14:49:17.566	0.971355
14:49:17.865	0.963996
14:49:18.266	0.945062
14:49:18.565	0.909374
14:49:18.866	0.894330
14:49:19.266	0.870708
14:49:19.566	0.850109
14:49:19.965	0.826300
14:49:20.266	0.852553
14:49:20.566	0.875541
14:49:20.965	0.856955
14:49:21.266	0.851970
14:49:21.666	0.861649
14:49:21.966	0.865304
14:49:22.366	0.872829
14:49:22.666	0.863940
14:49:23.066	0.856356
14:49:23.366	0.846231
14:49:23.766	0.835690
14:49:24.066	0.840231
14:49:24.465	0.815763
14:49:24.765	0.791441
14:49:25.065	0.777288
14:49:25.465	0.773040
14:49:25.766	0.780850
14:49:26.066	0.776048
14:49:26.467	0.771469
14:49:26.766	0.776104
14:49:27.165	0.774928
14:49:27.465	0.764229
14:49:27.766	0.775186
14:49:28.165	0.775886
14:49:28.465	0.801765
14:49:28.766	0.816879
14:49:29.165	0.831617
14:49:29.466	0.831364
14:49:29.865	0.860077
14:49:30.166	0.857165
14:49:30.566	0.836747
14:49:30.866	0.830000
14:49:31.266	0.837472
14:49:31.566	0.825529
14:49:31.866	0.804454
14:49:32.266	0.805723
14:49:32.565	0.793366
14:49:32.866	0.805502
14:49:33.266	0.825534
14:49:33.566	0.825226
14:49:33.966	0.853547
14:49:34.266	0.856451
14:49:34.666	0.846182
14:49:34.966	0.845812
14:49:35.366	0.846547
14:49:35.666	0.837100
14:49:35.966	0.836262
14:49:36.366	0.850302
14:49:36.666	0.829429
14:49:37.066	0.823032
14:49:37.366	0.825749
14:49:37.766	0.821010
14:49:38.065	0.819734
14:49:38.466	0.807945
14:49:38.766	0.810356
14:49:39.165	0.830872
14:49:39.466	0.831451
14:49:39.765	0.817061
14:49:40.166	0.812482
14:49:40.466	0.817824
14:49:40.866	0.817980
14:49:41.166	0.814535
14:49:41.566	0.785107
14:49:41.866	0.759542
14:49:42.165	0.760974
14:49:42.566	0.774317
14:49:42.865	0.764839
14:49:43.266	0.765049
14:49:43.566	0.777866
14:49:43.866	0.781305
14:49:44.266	0.790976
14:49:44.566	0.799797
14:49:44.966	0.816736
14:49:45.265	0.823232
14:49:45.666	0.832536
14:49:45.966	0.834585
14:49:46.266	0.814877
14:49:46.666	0.774153
14:49:46.966	0.802020
14:49:47.365	0.811270
14:49:47.666	0.814337
14:49:47.966	0.816923
14:49:48.366	0.831865
14:49:48.666	0.830180
14:49:48.965	0.842239
14:49:49.366	0.841336
14:49:49.666	0.846316
14:49:49.966	0.828201
14:49:50.365	0.808693
14:49:50.666	0.797694
14:49:51.066	0.771043
14:49:51.366	0.771082
14:49:51.765	0.787258
14:49:52.066	0.809703
14:49:52.465	0.814729
14:49:52.766	0.810239
14:49:53.066	0.808351
14:49:53.467	0.807432
14:49:53.766	0.804209
14:49:54.066	0.796360
14:49:54.466	0.795801
14:49:54.766	0.783318
14:49:55.166	0.787140
14:49:55.466	0.783486
14:49:55.866	0.772792
14:49:56.266	0.759784
14:49:56.566	0.766298
14:49:56.866	0.820683
14:49:57.266	0.840937
14:49:57.566	0.844651
14:49:57.866	0.842307
14:49:58.266	0.844074
14:49:58.566	0.850459
14:49:58.965	0.850432
14:49:59.265	0.832753
14:49:59.566	0.828068
14:49:59.965	0.807001
14:50:00.266	0.798456
14:50:00.666	0.773477
14:50:00.965	0.772357
14:50:01.266	0.780882
14:50:01.665	0.795195
14:50:01.966	0.791369
14:50:02.365	0.787276
14:50:02.666	0.814689
14:50:02.966	0.835128
14:50:03.365	0.856336
14:50:03.666	0.859005
14:50:03.965	0.846155
14:50:04.366	0.835866
14:50:04.666	0.833264
14:50:05.066	0.819892
14:50:05.466	0.804930
14:50:05.765	0.799487
14:50:06.166	0.809686
14:50:06.466	0.805175
14:50:06.865	0.818967
14:50:07.165	0.831887
14:50:07.466	0.812949
14:50:07.866	0.807055
14:50:08.166	0.807283
14:50:08.566	0.800195
14:50:08.867	0.811076
14:50:09.266	0.794955
14:50:09.566	0.785262
14:50:09.966	0.801267
14:50:10.266	0.810551
14:50:10.665	0.818240
14:50:10.965	0.822687
14:50:11.266	0.821909
14:50:11.666	0.817964
14:50:11.966	0.816710
14:50:12.365	0.832689
14:50:12.666	0.829089
14:50:13.065	0.828850
14:50:13.466	0.831721
14:50:13.766	0.842793
14:50:14.066	0.839045
14:50:14.465	0.836755
14:50:14.766	0.826890
14:50:15.066	0.821371
14:50:15.466	0.826887
14:50:15.766	0.814000
14:50:16.066	0.810040
14:50:16.466	0.813819
14:50:16.766	0.798955
14:50:17.166	0.821000
14:50:17.466	0.818803
14:50:17.766	0.835621
14:50:18.166	0.863681
14:50:18.466	0.862526
14:50:18.865	0.880588
14:50:19.165	0.883784
14:50:19.567	0.860697
14:50:19.866	0.861762
14:50:20.266	0.836910
14:50:20.566	0.833099
14:50:20.966	0.836776
14:50:21.266	0.834038
14:50:21.666	0.839463
14:50:21.966	0.826055
14:50:22.266	0.831414
14:50:22.666	0.832714
14:50:22.966	0.859427
14:50:23.366	0.850170
14:50:23.665	0.825245
14:50:24.066	0.846761
14:50:24.366	0.854852
14:50:24.766	0.848219
14:50:25.066	0.868537
14:50:25.365	0.885136
14:50:25.766	0.872581
14:50:26.065	0.868163
14:50:26.466	0.841436
14:50:26.766	0.845419
14:50:27.166	0.846992
14:50:27.467	0.860207
14:50:27.866	0.883612
14:50:28.166	0.863807
14:50:28.565	0.839982
14:50:28.866	0.836811
14:50:29.166	0.840567
14:50:29.566	0.832223
14:50:29.866	0.828208
14:50:30.166	0.834784
14:50:30.566	0.839067
14:50:30.866	0.821420
14:50:31.266	0.810065
14:50:31.566	0.790846
14:50:31.966	0.789996
14:50:32.266	0.798095
14:50:32.666	0.790842
14:50:32.966	0.823979
14:50:33.366	0.839903
14:50:33.666	0.846664
14:50:34.066	0.839228
14:50:34.365	0.838686
14:50:34.766	0.853686
14:50:35.066	0.844639
14:50:35.366	0.817103
14:50:35.767	0.816278
14:50:36.066	0.824025
14:50:36.366	0.845696
14:50:36.766	0.842453
14:50:37.066	0.834225
14:50:37.466	0.822026
14:50:37.766	0.830273
14:50:38.166	0.825613
14:50:38.466	0.824622
14:50:38.865	0.831359
14:50:39.166	0.843979
14:50:39.466	0.835918
14:50:39.866	0.819484
14:50:40.165	0.825696
14:50:40.466	0.803441
14:50:40.866	0.799525
14:50:41.166	0.810834
14:50:41.566	0.833765
14:50:41.866	0.825785
14:50:42.166	0.820475
14:50:42.567	0.870654
14:50:42.866	0.898720
14:50:43.265	0.919049
14:50:43.566	0.942350
14:50:43.866	0.991004
14:50:44.266	1.038691
14:50:44.566	1.071933
14:50:44.966	1.117661
14:50:45.267	1.205059
14:50:45.566	1.273860
14:50:45.966	1.308738
14:50:46.265	1.359595
14:50:46.566	1.453149
14:50:46.966	1.524130
14:50:47.266	1.549646
14:50:47.566	1.618938
14:50:47.966	1.656187
14:50:48.266	1.689841
14:50:48.666	1.759684
14:50:48.966	1.869931
14:50:49.266	1.912164
14:50:49.666	1.989738
14:50:49.966	2.027024
14:50:50.266	2.072887
14:50:50.666	2.125118
14:50:50.966	2.108460
14:50:51.266	2.115821
14:50:51.666	2.117256
14:50:51.966	2.105777
14:50:52.366	2.103270
14:50:52.666	2.088217
14:50:53.066	2.061944
14:50:53.366	1.995473
14:50:53.766	1.916495
14:50:54.066	1.822479
14:50:54.466	1.708084
14:50:54.766	1.653655
14:50:55.166	1.521411
14:50:55.466	1.419604
14:50:55.866	1.328813
14:50:56.266	1.265865
14:50:56.566	1.236838
14:50:56.866	1.169620
14:50:57.266	1.095269
14:50:57.566	1.078539
14:50:57.866	1.009468
14:50:58.266	0.981381
14:50:58.566	0.973462
14:50:58.966	0.926852
14:50:59.266	0.896837
14:50:59.566	0.887917
14:50:59.966	0.863479
14:51:00.266	0.865414
14:51:00.566	0.862009
14:51:00.966	0.863330
14:51:01.266	0.850990
14:51:01.566	0.829878
14:51:01.966	0.827224
14:51:02.266	0.813365
14:51:02.566	0.829594
14:51:02.966	0.853991
14:51:03.267	0.861296
14:51:03.566	0.860254
14:51:03.967	0.859485
14:51:04.267	0.871711
14:51:04.567	0.878332
14:51:04.966	0.853021
14:51:05.266	0.834622
14:51:05.666	0.828679
14:51:05.966	0.835237
14:51:06.266	0.830679
14:51:06.666	0.812541
14:51:06.966	0.818135
14:51:07.266	0.813108
14:51:07.667	0.824433
14:51:07.966	0.830134
14:51:08.266	0.799633
14:51:08.666	0.794451
14:51:09.067	0.799972
14:51:09.366	0.771437
14:51:09.666	0.793309
14:51:10.066	0.819552
14:51:10.366	0.824781
14:51:10.666	0.827475
14:51:11.066	0.840000
14:51:11.366	0.846693
14:51:11.666	0.837410
14:51:12.066	0.816661
14:51:12.366	0.826226
14:51:12.766	0.828226
14:51:13.066	0.832176
14:51:13.466	0.847093
14:51:13.766	0.839251
14:51:14.066	0.826278
14:51:14.467	0.845106
14:51:14.766	0.842199
14:51:15.166	0.856093
14:51:15.466	0.837631
14:51:15.866	0.838008
14:51:16.166	0.833985
14:51:16.566	0.830758
14:51:16.867	0.825948
14:51:17.266	0.804611
14:51:17.566	0.804119
14:51:17.867	0.807096
14:51:18.267	0.799342
14:51:18.567	0.806882
14:51:18.966	0.802390
14:51:19.266	0.795462
14:51:19.567	0.782554
14:51:19.966	0.805344
14:51:20.266	0.814903
14:51:20.566	0.821924
14:51:20.966	0.814434
14:51:21.267	0.803910
14:51:21.566	0.820018
14:51:21.967	0.836365
14:51:22.267	0.841463
14:51:22.567	0.838110
14:51:22.967	0.832079
14:51:23.267	0.816487
14:51:23.666	0.825439
14:51:23.967	0.808563
14:51:24.266	0.792638
14:51:24.666	0.798197
14:51:24.967	0.801960
14:51:25.366	0.837187
14:51:25.667	0.831294
14:51:25.966	0.828630
14:51:26.367	0.834512
14:51:26.667	0.816024
14:51:27.067	0.818869
14:51:27.366	0.832554
14:51:27.666	0.849556
14:51:28.067	0.837293
14:51:28.367	0.828500
14:51:28.666	0.816734
14:51:29.066	0.797368
14:51:29.367	0.792424
14:51:29.667	0.803040
14:51:30.067	0.803849
14:51:30.366	0.806652
14:51:30.766	0.816711
14:51:31.066	0.797115
14:51:31.367	0.783872
14:51:31.766	0.789357
14:51:32.067	0.805057
14:51:32.467	0.813926
14:51:32.767	0.822141
14:51:33.166	0.813516
14:51:33.467	0.802244
14:51:33.766	0.792090
14:51:34.167	0.806539
14:51:34.467	0.809594
14:51:34.767	0.791358
14:51:35.167	0.821543
14:51:35.466	0.824399
14:51:35.767	0.807782
14:51:36.167	0.794066
14:51:36.466	0.785811
14:51:36.767	0.778638
14:51:37.166	0.803288
14:51:37.466	0.805569
14:51:37.867	0.818026
14:51:38.167	0.806437
14:51:38.467	0.800483
14:51:38.867	0.774820
14:51:39.167	0.811410
14:51:39.466	0.805935
14:51:39.867	0.812749
14:51:40.166	0.830189
14:51:40.466	0.846803
14:51:40.867	0.838857
14:51:41.167	0.844736
14:51:41.466	0.867355
14:51:41.867	0.850868
14:51:42.167	0.858931
14:51:42.466	0.867411
14:51:42.867	0.875552
14:51:43.167	0.871265
14:51:43.467	0.870217
14:51:43.866	0.860239
14:51:44.168	0.859711
14:51:44.566	0.858440
14:51:44.866	0.853807
14:51:45.266	0.857157
14:51:45.566	0.848459
14:51:45.866	0.837632
14:51:46.268	0.852369
14:51:46.567	0.852774
14:51:46.866	0.853951
14:51:47.266	0.847655
14:51:47.567	0.840507
14:51:47.867	0.815549
14:51:48.267	0.800389
14:51:48.567	0.824741
14:51:48.867	0.834003
14:51:49.266	0.828521
14:51:49.566	0.844440
14:51:49.866	0.839114
14:51:50.267	0.832834
14:51:50.566	0.808817
14:51:50.967	0.810025
14:51:51.266	0.815578
14:51:51.566	0.827797
14:51:51.966	0.833073
14:51:52.267	0.840497
14:51:52.567	0.811111
14:51:52.966	0.813787
14:51:53.266	0.812013
14:51:53.567	0.817056
14:51:53.967	0.825809
14:51:54.266	0.836757
14:51:54.666	0.825433
14:51:54.967	0.824699
14:51:55.368	0.804668
14:51:55.667	0.805482
14:51:56.067	0.819818
14:51:56.367	0.807778
14:51:56.767	0.776783
14:51:57.067	0.772826
14:51:57.367	0.787074
14:51:57.768	0.800106
14:51:58.167	0.817071
14:51:58.467	0.821412
14:51:58.767	0.827064
14:51:59.166	0.825295
14:51:59.466	0.815281
14:51:59.767	0.829375
14:52:00.167	0.837608
14:52:00.467	0.847395
14:52:00.766	0.849879
14:52:01.166	0.851493
14:52:01.467	0.834613
14:52:01.767	0.831298
14:52:02.166	0.801003
14:52:02.467	0.799825
14:52:02.766	0.805556
14:52:03.167	0.808498
14:52:03.466	0.813957
14:52:03.767	0.811071
14:52:04.167	0.802475
14:52:04.467	0.795370
14:52:04.867	0.795207
14:52:05.167	0.818147
14:52:05.566	0.837220
14:52:05.867	0.844779
14:52:06.266	0.853213
14:52:06.566	0.855735
14:52:06.866	0.847885
14:52:07.267	0.831823
14:52:07.567	0.869120
14:52:07.866	0.871526
14:52:08.267	0.873612
14:52:08.567	0.893158
14:52:08.966	0.905593
14:52:09.267	0.907927
14:52:09.566	0.899734
14:52:09.966	0.925027
14:52:10.267	0.927472
14:52:10.566	0.924555
14:52:10.967	0.896360
14:52:11.266	0.920938
14:52:11.667	0.948706
14:52:11.966	0.965603
14:52:12.367	0.983125
14:52:12.667	1.050515
14:52:12.966	1.069518
14:52:13.366	1.111647
14:52:13.667	1.236397
14:52:13.967	1.295846
14:52:14.367	1.374527
14:52:14.666	1.460126
14:52:14.967	1.516754
14:52:15.367	1.599180
14:52:15.667	1.760304
14:52:15.967	1.836055
14:52:16.367	1.988045
14:52:16.667	2.141656
14:52:16.967	2.433931
14:52:18.266	2.533033
14:52:18.566	2.556325
14:52:18.867	2.616855
14:52:19.267	2.712986
14:52:19.567	2.747354
14:52:19.967	2.760957
14:52:20.266	2.782877
14:52:20.666	2.774387
14:52:20.966	2.776072
14:52:21.367	2.752448
14:52:21.667	2.706525
14:52:21.967	2.669851
14:52:22.366	2.620723
14:52:22.666	2.605775
14:52:22.967	2.541079
14:52:23.367	2.524016
14:52:23.667	2.500638
14:52:23.967	2.436050
14:52:24.367	2.405168
14:52:24.667	2.397896
14:52:24.967	2.326761
14:52:25.367	2.257905
14:52:25.666	2.241523
14:52:25.967	2.206774
14:52:26.367	2.145545
14:52:26.667	2.114895
14:52:27.066	2.109899
14:52:27.366	2.111946
14:52:27.767	2.078539
14:52:28.067	2.055172
14:52:28.467	2.071981
14:52:28.766	2.085048
14:52:29.067	2.063804
14:52:29.467	2.021028
14:52:29.767	2.045460
14:52:30.067	2.039204
14:52:30.467	2.029885
14:52:30.767	2.020610
14:52:31.167	2.002770
14:52:31.466	2.006989
14:52:31.767	2.004530
14:52:32.167	2.025415
14:52:32.467	2.006503
14:52:32.767	2.007919
14:52:34.067	2.027722
14:52:34.367	2.029189
14:52:34.766	2.041437
14:52:35.067	2.030133
14:52:35.467	2.045611
14:52:35.767	2.043555
14:52:36.067	2.048096
14:52:36.467	2.075684
14:52:36.767	2.103684
14:52:37.067	2.094621
14:52:37.467	2.082806
14:52:37.767	2.070582
14:52:38.067	2.055510
14:52:38.466	2.066783
14:52:38.767	2.065805
14:52:39.167	2.064093
14:52:39.467	2.038023
14:52:39.767	2.028429
14:52:40.167	2.067212
14:52:40.467	2.076179
14:52:40.766	2.053914
14:52:41.166	2.083422
14:52:41.467	2.082175
14:52:41.867	2.108842
14:52:42.166	2.119757
14:52:42.567	2.111296
14:52:42.867	2.113861
14:52:43.167	2.120200
14:52:43.567	2.073988
14:52:43.867	2.046092
14:52:44.166	2.032746
14:52:44.567	2.017598
14:52:44.867	2.022730
14:52:45.266	2.010390
14:52:45.567	2.017197
14:52:45.966	2.064844
14:52:46.267	2.131542
14:52:46.566	2.153032
14:52:46.968	2.145023
14:52:47.266	2.160414
14:52:47.666	2.154618
14:52:47.967	2.163105
14:52:48.267	2.154821
14:52:48.666	2.159945
14:52:48.967	2.167737
14:52:49.367	2.187066
14:52:49.667	2.191030
14:52:50.967	2.199565
14:52:51.267	2.226949
14:52:51.667	2.269564
14:52:51.967	2.302946
14:52:52.267	2.355968
14:52:52.667	2.372459
14:52:52.966	2.380897
14:52:53.367	2.415355
14:52:53.667	2.434271
14:52:53.966	2.446233
14:52:54.367	2.540974
14:52:54.666	2.589908
14:52:54.967	2.637300
14:52:55.367	2.732276
14:52:55.667	2.861247
14:52:55.966	2.920536
14:52:56.367	3.034395
14:52:56.767	3.169345
14:52:57.067	3.376869
14:52:57.467	3.609001
14:52:57.768	3.706436
14:52:58.066	3.885814
14:52:58.467	4.075285
14:52:58.766	4.151566
14:52:59.066	4.275817
14:52:59.467	4.389250
14:52:59.766	4.450385
14:53:00.067	4.543837
14:53:00.467	4.611826
14:53:00.767	4.632237
14:53:01.167	4.696096
14:53:01.467	4.689284
14:53:01.866	4.652621
14:53:02.167	4.538688
14:53:02.467	4.472444
14:53:02.867	4.320394
14:53:03.167	4.175706
14:53:03.567	4.048555
14:53:03.868	3.970947
14:53:04.267	3.811222
14:53:04.567	3.717295
14:53:04.967	3.601123
14:53:05.266	3.512163
14:53:05.667	3.381462
14:53:05.967	3.280794
14:53:06.266	3.200537
14:53:06.667	3.061144
14:53:06.967	2.937812
14:53:07.267	2.858007
14:53:07.667	2.830769
14:53:07.967	2.714350
14:53:08.267	2.605536
14:53:08.667	2.552719
14:53:08.966	2.530010
14:53:09.267	2.456106
14:53:09.667	2.378083
14:53:09.967	2.331238
14:53:10.367	2.286989
14:53:10.767	2.225589
14:53:11.067	2.203866
14:53:11.466	2.186751
14:53:11.767	2.169782
14:53:12.066	2.074312
14:53:12.466	1.900729
14:53:13.766	1.840974
14:53:14.067	1.796307
14:53:14.367	1.756542
14:53:14.767	1.717510
14:53:15.067	1.693972
14:53:15.367	1.679965
14:53:15.767	1.658723
14:53:16.067	1.642183
14:53:16.367	1.660424
14:53:16.767	1.628967
14:53:17.067	1.583966
14:53:17.367	1.558856
14:53:17.767	1.512789
14:53:18.067	1.497658
14:53:18.467	1.474283
14:53:18.866	1.470536
14:53:19.167	1.478166
14:53:19.467	1.454756
14:53:19.867	1.440226
14:53:20.167	1.431617
14:53:20.467	1.398336
14:53:20.867	1.348205
14:53:21.167	1.338174
14:53:21.467	1.295876
14:53:21.866	1.283577
14:53:22.167	1.274183
14:53:22.567	1.233895
14:53:22.867	1.230958
14:53:23.167	1.248899
14:53:23.567	1.251415
14:53:23.867	1.241591
14:53:24.167	1.213352
14:53:24.567	1.208924
14:53:24.866	1.206440
14:53:25.167	1.208794
14:53:25.566	1.183569
14:53:25.867	1.192024
14:53:26.267	1.196506
14:53:26.567	1.183325
14:53:26.868	1.175782
14:53:27.267	1.159843
14:53:27.567	1.169502
14:53:27.967	1.131021
14:53:28.268	1.140233
14:53:28.567	1.139392
14:53:28.967	1.158604
14:53:29.266	1.165340
14:53:29.667	1.156369
14:53:29.967	1.135898
14:53:30.267	1.127691
14:53:30.667	1.108392
14:53:30.967	1.095512
14:53:31.267	1.101486
14:53:31.667	1.118516
14:53:31.967	1.116765
14:53:32.267	1.116206
14:53:32.667	1.107285
14:53:32.967	1.102120
14:53:33.367	1.098317
14:53:33.667	1.112718
14:53:34.067	1.092208
14:53:34.366	1.086738
14:53:34.767	1.082808
14:53:35.066	1.062410
14:53:35.367	1.041237
14:53:35.767	1.012954
14:53:36.067	1.014017
14:53:36.467	1.070407
14:53:36.766	1.084691
14:53:37.167	1.058668
14:53:37.467	1.008592
14:53:37.767	0.996566
14:53:38.167	0.988287
14:53:38.467	1.004315
14:53:38.867	0.993407
14:53:39.167	0.876329
14:53:39.467	0.891597
14:53:39.867	0.903987
14:53:40.167	0.930086
14:53:40.567	0.945044
14:53:40.867	0.958509
14:53:41.267	1.017247
14:53:41.566	1.039210
14:53:41.867	1.039162
14:53:42.267	1.014632
14:53:42.567	1.025587
14:53:42.967	1.028114
14:53:43.267	1.013060
14:53:43.567	1.026077
14:53:43.967	1.007385
14:53:44.267	1.004902
14:53:44.567	0.989361
14:53:44.967	0.961806
14:53:45.266	0.972704
14:53:45.567	0.953219
14:53:45.967	0.982632
14:53:46.267	0.998330
14:53:46.667	0.976322
14:53:46.967	0.941293
14:53:47.366	0.972481
14:53:47.667	0.963454
14:53:48.067	0.980414
14:53:48.367	0.990326
14:53:48.767	1.006763
14:53:49.067	0.995340
14:53:49.368	0.990307
14:53:49.767	1.014577
14:53:50.067	1.015619
14:53:50.467	1.019645
14:53:50.767	1.022175
14:53:51.167	1.015728
14:53:51.467	1.000616
14:53:51.767	0.989793
14:53:52.168	0.992510
14:53:52.467	0.972144
14:53:52.867	0.961106
14:53:53.167	0.935952
14:53:53.467	0.887790
14:53:53.867	0.876456
14:53:54.168	0.880320
14:53:54.567	0.903039
14:53:54.867	0.907903
14:53:55.167	0.924704
14:53:55.567	0.923953
14:53:55.867	0.934415
14:53:56.267	0.914083
14:53:56.567	0.878330
14:53:56.967	0.871864
14:53:57.267	0.884581
14:53:57.667	0.904914
14:53:57.967	0.885426
14:53:58.367	0.866314
14:53:58.667	0.849872
14:53:59.067	0.828913
14:53:59.367	0.835638
14:53:59.668	0.855050
14:54:00.067	0.897897
14:54:00.367	0.886311
14:54:00.667	0.869442
14:54:01.067	0.859865
14:54:01.367	0.834565
14:54:01.667	0.866381
14:54:02.067	0.859536
14:54:02.368	0.849316
14:54:02.667	0.838035
14:54:03.067	0.843579
14:54:03.367	0.840561
14:54:03.667	0.840151
14:54:04.067	0.862448
14:54:04.367	0.861198
14:54:04.667	0.839372
14:54:05.067	0.820806
14:54:05.367	0.822501
14:54:05.667	0.829621
14:54:06.067	0.868664
14:54:06.367	0.878019
14:54:06.667	0.877403
14:54:07.068	0.932494
14:54:07.367	0.944892
14:54:07.767	0.960169
14:54:08.067	0.926171
14:54:08.467	0.928935
14:54:08.767	0.964829
14:54:09.167	0.971761
14:54:09.467	0.950987
14:54:09.767	0.982064
14:54:10.168	1.003855
14:54:10.467	1.003003
14:54:10.767	0.985954
14:54:11.168	0.998807
14:54:11.467	0.974283
14:54:11.868	0.976907
14:54:12.168	1.001117
14:54:12.568	1.044536
14:54:12.868	1.071348
14:54:13.268	1.078853
14:54:13.567	1.080283
14:54:13.867	1.069394
14:54:14.267	1.048760
14:54:14.567	1.047595
14:54:14.967	1.049478
14:54:15.267	1.055182
14:54:15.667	1.026775
14:54:15.967	1.019336
14:54:16.267	1.010394
14:54:16.668	0.993393
14:54:16.967	0.967822
14:54:17.267	1.006651
14:54:17.667	1.025118
14:54:17.968	1.015159
14:54:18.367	0.998948
14:54:18.668	0.985679
14:54:19.068	0.942006
14:54:19.368	0.937992
14:54:19.668	0.951711
14:54:20.067	0.925656
14:54:20.367	0.927035
14:54:20.667	0.927782
14:54:21.067	0.895267
14:54:21.367	0.892296
14:54:21.767	0.866024
14:54:22.167	0.861249
14:54:22.467	0.825892
14:54:22.767	0.815763
14:54:23.167	0.819262
14:54:23.467	0.827153
14:54:23.768	0.853700
14:54:24.168	0.869589
14:54:24.467	0.897808
14:54:24.768	0.881435
14:54:25.167	0.902818
14:54:25.467	0.897450
14:54:25.867	0.902153
14:54:26.167	0.926164
14:54:26.568	0.953165
14:54:26.867	0.965889
14:54:27.168	0.976941
14:54:27.568	0.977217
14:54:27.868	0.987363
14:54:28.268	0.969448
14:54:28.568	1.005320
14:54:28.967	1.039455
14:54:29.267	1.052826
14:54:29.667	1.102300
14:54:29.967	1.123480
14:54:30.368	1.098922
14:54:30.667	1.093817
14:54:31.068	1.122775
14:54:31.367	1.136241
14:54:31.668	1.154908
14:54:32.067	1.154024
14:54:32.368	1.141766
14:54:32.667	1.160937
14:54:33.067	1.146913
14:54:33.367	1.154045
14:54:33.667	1.159728
14:54:34.067	1.146374
14:54:34.368	1.142978
14:54:34.667	1.130572
14:54:35.067	1.145872
14:54:35.368	1.149305
14:54:35.668	1.138265
14:54:36.068	1.151945
14:54:36.367	1.166006
14:54:36.668	1.165724
14:54:37.068	1.161327
14:54:37.367	1.169626
14:54:37.667	1.175028
14:54:38.068	1.189936
14:54:38.367	1.189754
14:54:38.668	1.191260
14:54:39.068	1.222898
14:54:39.368	1.235766
14:54:39.668	1.219855
14:54:40.067	1.242197
14:54:40.367	1.224758
14:54:40.668	1.218946
14:54:41.067	1.201184
14:54:41.367	1.237648
14:54:41.668	1.250133
14:54:42.067	1.241052
14:54:42.368	1.214154
14:54:42.768	1.225554
14:54:43.068	1.222586
14:54:43.468	1.213510
14:54:43.767	1.159105
14:54:44.168	1.177768
14:54:44.467	1.172158
14:54:44.767	1.186277
14:54:45.168	1.145915
14:54:45.467	1.134108
14:54:45.768	1.094027
14:54:46.167	1.080264
14:54:46.468	1.081244
14:54:46.767	1.068775
14:54:47.167	1.038105
14:54:47.467	1.025889
14:54:47.769	0.997261
14:54:48.168	1.006615
14:54:48.468	1.029665
14:54:48.768	1.035053
14:54:49.168	1.009178
14:54:49.468	0.962547
14:54:49.868	0.961004
14:54:50.167	0.976433
14:54:50.568	0.972759
14:54:50.867	0.987981
14:54:51.267	0.976926
14:54:51.568	0.993159
14:54:51.868	0.969023
14:54:52.268	0.949616
14:54:52.567	0.917730
14:54:52.867	0.933518
14:54:53.268	0.925488
14:54:53.567	0.903652
14:54:53.867	0.883506
14:54:54.267	0.893849
14:54:54.567	0.898721
14:54:54.867	0.898876
14:54:55.268	0.892290
14:54:55.568	0.884660
14:54:55.867	0.879956
14:54:56.267	0.885332
14:54:56.568	0.857562
14:54:56.967	0.849704
14:54:57.367	0.857826
14:54:57.667	0.861527
14:54:58.067	0.850102
14:54:58.368	0.825573
14:54:58.668	0.822009
14:54:59.067	0.821638
14:54:59.368	0.812444
14:54:59.767	0.799897
14:55:00.068	0.814425
14:55:00.368	0.812525
14:55:00.767	0.813625
14:55:01.068	0.810982
14:55:01.468	0.802330
14:55:01.767	0.790594
14:55:02.069	0.757710
14:55:02.468	0.757474
14:55:02.768	0.774069
14:55:03.067	0.764324
14:55:03.467	0.736160
14:55:03.767	0.726509
14:55:04.168	0.711376
14:55:04.469	0.710601
14:55:04.768	0.715980
14:55:05.168	0.712342
14:55:05.467	0.701902
14:55:05.767	0.686947
14:55:06.167	0.690437
14:55:06.467	0.700227
14:55:06.768	0.704661
14:55:07.168	0.709688
14:55:07.468	0.728204
14:55:07.868	0.772733
14:55:08.168	0.773031
14:55:08.568	0.760982
14:55:08.868	0.721591
14:55:09.168	0.735835
14:55:09.567	0.753333
14:55:09.868	0.779405
14:55:10.267	0.786813
14:55:10.568	0.796424
14:55:10.967	0.809471
14:55:11.267	0.850612
14:55:11.667	0.831849
14:55:11.968	0.811198
14:55:12.368	0.836066
14:55:12.667	0.850492
14:55:12.967	0.848396
14:55:13.368	0.862387
14:55:13.668	0.855565
14:55:13.968	0.853325
14:55:14.367	0.823409
14:55:14.669	0.830927
14:55:14.968	0.815742
14:55:15.368	0.799669
14:55:15.667	0.785502
14:55:15.968	0.746029
14:55:16.368	0.760235
14:55:16.668	0.765072
14:55:16.967	0.767177
14:55:17.367	0.763410
14:55:17.667	0.759908
14:55:18.067	0.756983
14:55:18.367	0.753544
14:55:18.768	0.733272
14:55:19.068	0.714583
14:55:19.468	0.706773
14:55:19.768	0.700755
14:55:20.068	0.692333
14:55:20.468	0.719450
14:55:20.768	0.709441
14:55:21.068	0.709238
14:55:21.468	0.718445
14:55:21.768	0.737263
14:55:22.167	0.732202
14:55:22.467	0.710023
14:55:22.768	0.685190
14:55:23.167	0.674669
14:55:23.467	0.660664
14:55:23.768	0.651070
14:55:24.168	0.621183
14:55:24.467	0.628871
14:55:24.867	0.663156
14:55:25.168	0.647495
14:55:25.568	0.632197
14:55:25.867	0.619014
14:55:26.168	0.626032
14:55:26.568	0.629270
14:55:26.867	0.639473
14:55:27.168	0.637529
14:55:27.568	0.647791
14:55:27.867	0.675922
14:55:28.168	0.712715
14:55:28.567	0.696760
14:55:28.868	0.688875
14:55:29.268	0.700898
14:55:29.567	0.724008
14:55:29.968	0.728797
14:55:30.267	0.705004
14:55:30.667	0.681091
14:55:30.967	0.707073
14:55:31.269	0.709293
14:55:31.668	0.696246
14:55:31.968	0.687653
14:55:32.367	0.678897
14:55:32.668	0.682090
14:55:32.968	0.665246
14:55:33.368	0.637928
14:55:33.668	0.635455
14:55:33.967	0.647540
14:55:34.368	0.643478
14:55:34.668	0.641675
14:55:34.968	0.643157
14:55:35.368	0.633447
14:55:35.668	0.640304
14:55:36.068	0.635525
14:55:36.367	0.644443
14:55:36.768	0.640793
14:55:37.068	0.622190
14:55:37.468	0.614539
14:55:37.768	0.619005
14:55:38.067	0.621489
14:55:38.469	0.644097
14:55:38.769	0.640885
14:55:39.167	0.641733
14:55:39.468	0.654823
14:55:39.868	0.662113
14:55:40.168	0.651944
14:55:40.567	0.699244
14:55:40.868	0.729348
14:55:41.168	0.696298
14:55:41.568	0.687598
14:55:41.868	0.660687
14:55:42.168	0.657660
14:55:42.567	0.667448
14:55:42.867	0.679886
14:55:43.268	0.714105
14:55:43.568	0.686823
14:55:43.967	0.697722
14:55:44.268	0.688665
14:55:44.569	0.677853
14:55:44.967	0.708478
14:55:45.268	0.722118
14:55:45.569	0.725556
14:55:45.968	0.730648
14:55:46.268	0.719442
14:55:46.667	0.708965