Chart Recorder Data File Fri, Sep 20, 2024 11:13 AM
Time (s)	CH1 (V)  
10:54:00.685	0.014872
10:54:01.584	0.026601
10:54:01.885	0.017418
10:54:02.185	0.024216
10:54:02.585	0.025526
10:54:02.884	0.016052
10:54:03.285	0.017812
10:54:03.585	0.021403
10:54:03.985	0.017702
10:54:04.284	0.056530
10:54:04.684	0.036552
10:54:04.985	0.030981
10:54:05.285	0.038967
10:54:05.685	0.029713
10:54:05.985	0.012937
10:54:06.385	0.020181
10:54:06.685	0.028709
10:54:07.085	0.014763
10:54:07.385	0.012046
10:54:07.785	0.019535
10:54:08.085	0.015489
10:54:08.385	0.012429
10:54:08.785	0.045329
10:54:09.085	0.020831
10:54:09.385	0.026893
10:54:09.785	0.018760
10:54:10.085	0.030994
10:54:10.485	0.029122
10:54:10.785	0.030467
10:54:11.184	0.013756
10:54:11.484	0.031512
10:54:11.885	0.024184
10:54:12.185	0.021001
10:54:12.585	0.040690
10:54:12.884	0.032147
10:54:13.285	0.030762
10:54:13.585	0.040150
10:54:13.985	0.020563
10:54:14.284	0.019928
10:54:14.685	0.023621
10:54:14.985	0.024831
10:54:15.285	0.024299
10:54:15.685	0.027090
10:54:15.985	0.036826
10:54:16.285	0.027717
10:54:16.685	0.028890
10:54:16.984	0.031009
10:54:17.384	0.026389
10:54:17.685	0.031667
10:54:18.085	0.034243
10:54:18.385	0.027424
10:54:18.785	0.031948
10:54:19.085	0.024148
10:54:19.485	0.020958
10:54:19.785	0.026205
10:54:20.185	0.030623
10:54:20.485	0.030372
10:54:20.885	0.031057
10:54:21.185	0.026556
10:54:21.585	0.021136
10:54:21.885	0.031458
10:54:22.285	0.024963
10:54:22.585	0.021913
10:54:22.985	0.031093
10:54:23.285	0.017193
10:54:23.685	0.028966
10:54:23.985	0.025424
10:54:24.285	0.041729
10:54:24.685	0.031966
10:54:24.985	0.034874
10:54:25.385	0.029465
10:54:25.684	0.023089
10:54:26.084	0.015713
10:54:26.385	0.034047
10:54:26.785	0.031354
10:54:27.085	0.025479
10:54:27.485	0.030065
10:54:27.785	0.026475
10:54:28.185	0.025800
10:54:28.485	0.026712
10:54:28.885	0.018889
10:54:29.185	0.031712
10:54:29.484	0.041943
10:54:29.885	0.037422
10:54:30.185	0.030082
10:54:30.585	0.028831
10:54:30.885	0.030999
10:54:31.285	0.023420
10:54:31.585	0.017362
10:54:31.985	0.026048
10:54:32.285	0.033960
10:54:32.685	0.028339
10:54:32.984	0.032371
10:54:33.285	0.035088
10:54:33.684	0.031961
10:54:33.985	0.018178
10:54:34.285	0.019883
10:54:34.685	0.019325
10:54:34.985	0.014250
10:54:35.385	0.028800
10:54:35.685	0.034535
10:54:36.085	0.038916
10:54:36.385	0.032418
10:54:36.785	0.027718
10:54:37.085	0.026267
10:54:37.485	0.035921
10:54:37.785	0.035466
10:54:38.185	0.028743
10:54:38.486	0.028998
10:54:38.885	0.026559
10:54:39.185	0.028988
10:54:39.585	0.027079
10:54:39.885	0.016810
10:54:40.185	0.026837
10:54:40.585	0.035147
10:54:40.885	0.036188
10:54:41.285	0.030984
10:54:41.585	0.042506
10:54:41.985	0.041245
10:54:42.285	0.032987
10:54:42.685	0.038984
10:54:42.985	0.025618
10:54:43.385	0.028740
10:54:43.685	0.021343
10:54:44.085	0.019769
10:54:44.385	0.035003
10:54:44.785	0.022432
10:54:45.085	0.025928
10:54:45.386	0.021425
10:54:45.785	0.038708
10:54:46.085	0.035467
10:54:46.386	0.030999
10:54:46.785	0.024447
10:54:47.085	0.023353
10:54:47.485	0.039171
10:54:47.785	0.035011
10:54:48.185	0.026258
10:54:48.485	0.017152
10:54:48.885	0.033161
10:54:49.185	0.031524
10:54:49.585	0.023833
10:54:49.885	0.015690
10:54:50.285	0.024602
10:54:50.585	0.042173
10:54:50.985	0.027695
10:54:51.285	0.045339
10:54:51.685	0.021746
10:54:51.985	0.020220
10:54:52.385	0.026193
10:54:52.685	0.027425
10:54:52.985	0.024423
10:54:53.385	0.032618
10:54:53.685	0.014859
10:54:54.085	0.034659
10:54:54.385	0.040026
10:54:54.685	0.029741
10:54:55.085	0.021757
10:54:55.385	0.027854
10:54:55.685	0.027829
10:54:56.085	0.030376
10:54:56.385	0.029988
10:54:56.785	0.021865
10:54:57.085	0.023789
10:54:57.485	0.023519
10:54:57.785	0.021865
10:54:58.185	0.024130
10:54:58.485	0.023542
10:54:58.885	0.018108
10:54:59.185	0.020163
10:54:59.586	0.035783
10:54:59.885	0.035230
10:55:00.285	0.031610
10:55:00.585	0.032093
10:55:00.985	0.017211
10:55:01.285	0.025708
10:55:01.585	0.030605
10:55:01.986	0.030562
10:55:02.285	0.032563
10:55:02.685	0.020337
10:55:02.985	0.022597
10:55:03.385	0.018676
10:55:03.686	0.024029
10:55:04.085	0.020829
10:55:04.385	0.028262
10:55:04.785	0.034086
10:55:05.085	0.032313
10:55:05.486	0.030542
10:55:05.785	0.026454
10:55:06.185	0.025485
10:55:06.485	0.028991
10:55:06.885	0.024337
10:55:07.185	0.024887
10:55:07.486	0.019621
10:55:07.885	0.031019
10:55:08.185	0.027763
10:55:08.485	0.026501
10:55:08.885	0.038884
10:55:09.185	0.044303
10:55:09.585	0.017909
10:55:09.885	0.027178
10:55:10.285	0.047059
10:55:10.586	0.043603
10:55:10.985	0.027752
10:55:11.285	0.028700
10:55:11.685	0.031487
10:55:11.985	0.032688
10:55:12.385	0.025368
10:55:12.685	0.029172
10:55:13.086	0.018913
10:55:13.385	0.026769
10:55:13.685	0.027211
10:55:14.085	0.012746
10:55:14.385	0.024527
10:55:14.786	0.033093
10:55:15.085	0.034501
10:55:15.486	0.031079
10:55:15.785	0.015088
10:55:16.185	0.028311
10:55:16.485	0.033419
10:55:16.886	0.025079
10:55:17.185	0.024227
10:55:17.485	0.030606
10:55:17.886	0.027038
10:55:18.186	0.028712
10:55:18.585	0.027614
10:55:18.885	0.028212
10:55:19.185	0.030474
10:55:19.585	0.034158
10:55:19.885	0.030721
10:55:20.285	0.030154
10:55:20.585	0.025961
10:55:20.885	0.036163
10:55:21.285	0.033134
10:55:21.586	0.034254
10:55:21.985	0.038959
10:55:22.285	0.058139
10:55:22.685	0.086483
10:55:22.985	0.107426
10:55:23.386	0.201225
10:55:23.685	0.296029
10:55:24.085	0.470013
10:55:24.385	0.564414
10:55:24.785	0.783253
10:55:25.085	0.990530
10:55:25.486	1.170719
10:55:25.786	1.281263
10:55:26.185	1.461441
10:55:26.485	1.471850
10:55:26.886	1.442486
10:55:27.185	1.387521
10:55:27.585	1.193255
10:55:27.885	0.981636
10:55:28.286	0.771025
10:55:28.585	0.558625
10:55:28.985	0.363978
10:55:29.285	0.272444
10:55:29.686	0.167493
10:55:29.986	0.090538
10:55:30.386	0.043970
10:55:30.685	0.029458
10:55:31.086	0.024986
10:55:31.386	0.036813
10:55:31.686	0.034160
10:55:32.085	0.036938
10:55:32.386	0.022704
10:55:32.785	0.030584
10:55:33.086	0.029348
10:55:33.486	0.022375
10:55:33.786	0.028295
10:55:34.185	0.032449
10:55:34.485	0.021410
10:55:34.885	0.012474
10:55:35.185	0.013963
10:55:35.586	0.029136
10:55:35.886	0.036015
10:55:36.285	0.041167
10:55:36.585	0.034138
10:55:36.987	0.032114
10:55:37.285	0.032619
10:55:37.686	0.038838
10:55:37.985	0.035976
10:55:38.385	0.024591
10:55:38.685	0.024082
10:55:39.086	0.033605
10:55:39.385	0.031537
10:55:39.785	0.022810
10:55:40.086	0.025121
10:55:40.486	0.013519
10:55:40.786	0.008555
10:55:41.185	0.013156
10:55:41.485	0.020056
10:55:41.885	0.025679
10:55:42.186	0.023693
10:55:42.586	0.023038
10:55:42.886	0.020257
10:55:43.286	0.015475
10:55:43.585	0.023238
10:55:43.886	0.035811
10:55:44.286	0.022871
10:55:44.586	0.025955
10:55:44.886	0.028158
10:55:45.286	0.029678
10:55:45.587	0.026901
10:55:45.985	0.019451
10:55:46.386	0.017040
10:55:46.685	0.026619
10:55:47.086	0.025654
10:55:47.385	0.026174
10:55:47.785	0.031507
10:55:48.086	0.022900
10:55:48.486	0.022845
10:55:48.785	0.040345
10:55:49.185	0.025341
10:55:49.485	0.028281
10:55:49.785	0.031795
10:55:50.186	0.022870
10:55:50.485	0.034283
10:55:50.885	0.027750
10:55:51.186	0.034000
10:55:51.586	0.025318
10:55:51.885	0.029329
10:55:52.285	0.027089
10:55:52.585	0.026598
10:55:52.985	0.012239
10:55:53.286	0.020545
10:55:53.685	0.029401
10:55:53.986	0.025176
10:55:54.386	0.024366
10:55:54.686	0.035414
10:55:55.085	0.029023
10:55:55.386	0.025957
10:55:55.785	0.019213
10:55:56.086	0.017815
10:55:56.486	0.018513
10:55:56.786	0.019934
10:55:57.186	0.022293
10:55:57.485	0.025676
10:55:57.785	0.014863
10:55:58.186	0.019520
10:55:58.486	0.029720
10:55:58.786	0.024319
10:55:59.185	0.024100
10:55:59.486	0.025447
10:55:59.885	0.025595
10:56:00.185	0.031610
10:56:00.585	0.023093
10:56:00.885	0.015648
10:56:01.286	0.024591
10:56:01.585	0.016041
10:56:01.986	0.008028
10:56:02.285	0.006123
10:56:02.685	0.016769
10:56:02.986	0.015723
10:56:03.385	0.015456
10:56:03.686	0.015039
10:56:04.086	0.017153
10:56:04.386	0.022893
10:56:04.785	0.013645
10:56:05.085	0.009021
10:56:05.486	0.024177
10:56:05.785	0.017554
10:56:06.186	0.016132
10:56:06.485	0.023429
10:56:06.886	0.019691
10:56:07.185	0.027273
10:56:07.586	0.023504
10:56:07.886	0.025124
10:56:08.186	0.024225
10:56:08.586	0.019794
10:56:08.885	0.016302
10:56:09.285	0.019099
10:56:09.586	0.023797
10:56:09.886	0.021444
10:56:10.285	0.023276
10:56:10.586	0.019498
10:56:10.985	0.018863
10:56:11.285	0.018899
10:56:11.686	0.026569
10:56:11.986	0.022115
10:56:12.386	0.024608
10:56:12.686	0.029593
10:56:13.085	0.014109
10:56:13.386	0.012064
10:56:13.786	0.013464
10:56:14.086	0.021478
10:56:14.486	0.026141
10:56:14.785	0.021801
10:56:15.086	0.025299
10:56:15.485	0.010275
10:56:15.785	0.017700
10:56:16.186	0.020406
10:56:16.485	0.013469
10:56:16.885	0.022684
10:56:17.186	0.022989
10:56:17.587	0.022259
10:56:17.885	0.022216
10:56:18.287	0.021348
10:56:18.586	0.034602
10:56:18.887	0.031511
10:56:19.285	0.021333
10:56:19.586	0.012943
10:56:19.986	0.022217
10:56:20.285	0.029142
10:56:20.687	0.015582
10:56:20.986	0.018994
10:56:21.386	0.026956
10:56:21.686	0.024916
10:56:22.085	0.023448
10:56:22.386	0.005838
10:56:22.786	0.015808
10:56:23.085	0.014824
10:56:23.486	0.011883
10:56:23.786	0.019232
10:56:24.185	0.023004
10:56:24.486	0.025343
10:56:24.885	0.021239
10:56:25.186	0.018664
10:56:25.585	0.017155
10:56:25.886	0.019990
10:56:26.185	0.020045
10:56:26.586	0.015717
10:56:26.886	0.024778
10:56:27.285	0.022985
10:56:27.586	0.021168
10:56:27.985	0.014744
10:56:28.285	0.024798
10:56:28.685	0.034116
10:56:28.986	0.023220
10:56:29.386	0.025106
10:56:29.686	0.025484
10:56:30.085	0.021099
10:56:30.386	0.013119
10:56:30.785	0.022608
10:56:31.087	0.021525
10:56:31.485	0.015057
10:56:31.786	0.018478
10:56:32.186	0.026989
10:56:32.486	0.033068
10:56:32.886	0.027971
10:56:33.185	0.015760
10:56:33.585	0.019024
10:56:33.886	0.016305
10:56:34.286	0.027864
10:56:34.586	0.024016
10:56:34.986	0.020792
10:56:35.286	0.021921
10:56:35.685	0.018775
10:56:35.985	0.016296
10:56:36.386	0.027593
10:56:36.685	0.030361
10:56:37.085	0.013930
10:56:37.386	0.010736
10:56:37.786	0.025245
10:56:38.086	0.021673
10:56:38.486	0.016255
10:56:38.785	0.022394
10:56:39.185	0.013375
10:56:39.485	0.009126
10:56:39.885	0.022448
10:56:40.186	0.017446
10:56:40.585	0.008446
10:56:40.886	0.014860
10:56:41.186	0.015687
10:56:41.585	0.014893
10:56:41.886	0.026164
10:56:42.286	0.015075
10:56:42.586	0.014141
10:56:42.985	0.012410
10:56:43.286	0.016211
10:56:43.686	0.019912
10:56:43.985	0.023739
10:56:44.386	0.028466
10:56:44.686	0.024855
10:56:45.086	0.019254
10:56:45.386	0.012696
10:56:45.785	0.009513
10:56:46.085	0.012071
10:56:46.486	0.022244
10:56:46.785	0.021466
10:56:47.186	0.020205
10:56:47.485	0.018487
10:56:47.885	0.019930
10:56:48.186	0.028327
10:56:48.585	0.028208
10:56:48.886	0.028108
10:56:49.185	0.027160
10:56:49.585	0.021841
10:56:49.885	0.018962
10:56:50.286	0.015377
10:56:50.586	0.014954
10:56:50.886	0.021416
10:56:51.286	0.025048
10:56:51.686	0.017330
10:56:51.986	0.017162
10:56:52.386	0.020628
10:56:52.686	0.027856
10:56:53.086	0.026817
10:56:53.385	0.017329
10:56:53.786	0.018129
10:56:54.086	0.020931
10:56:54.486	0.027814
10:56:54.785	0.021184
10:56:55.086	0.019136
10:56:55.486	0.032614
10:56:55.786	0.027728
10:56:56.185	0.021974
10:56:56.486	0.017835
10:56:56.885	0.032386
10:56:57.186	0.028374
10:56:57.585	0.012477
10:56:57.886	0.017615
10:56:58.186	0.024411
10:56:58.585	0.026431
10:56:58.885	0.024768
10:56:59.286	0.033257
10:56:59.586	0.031263
10:56:59.986	0.027390
10:57:00.286	0.022442
10:57:00.685	0.019023
10:57:00.986	0.015818
10:57:01.386	0.018801
10:57:01.686	0.017181
10:57:02.086	0.017626
10:57:02.385	0.018963
10:57:02.786	0.021869
10:57:03.087	0.031906
10:57:03.385	0.028189
10:57:03.785	0.018820
10:57:04.086	0.022426
10:57:04.486	0.028937
10:57:04.786	0.035930
10:57:05.186	0.020622
10:57:05.485	0.016115
10:57:05.886	0.010210
10:57:06.186	0.017992
10:57:06.586	0.017811
10:57:06.886	0.017980
10:57:07.285	0.023020
10:57:07.585	0.026102
10:57:07.986	0.025799
10:57:08.286	0.020956
10:57:08.686	0.023760
10:57:08.985	0.018179
10:57:09.286	0.020972
10:57:09.686	0.029294
10:57:09.986	0.024626
10:57:10.386	0.015715
10:57:10.686	0.023246
10:57:11.086	0.008765
10:57:11.386	0.002322
10:57:11.786	0.008092
10:57:12.086	0.017136
10:57:12.486	0.012195
10:57:12.786	0.019599
10:57:13.186	0.030428
10:57:13.487	0.022382
10:57:13.886	0.026690
10:57:14.186	0.023926
10:57:14.485	0.014799
10:57:14.885	0.015143
10:57:15.186	0.021887
10:57:15.586	0.023619
10:57:15.886	0.018785
10:57:16.286	0.016246
10:57:16.586	0.013570
10:57:16.986	0.008812
10:57:17.285	0.014454
10:57:17.586	0.020149
10:57:17.985	0.022916
10:57:18.285	0.013052
10:57:18.686	0.024158
10:57:18.986	0.020334
10:57:19.386	0.005150
10:57:19.686	0.009647
10:57:20.086	0.013054
10:57:20.386	0.021634
10:57:20.786	0.029615
10:57:21.086	0.025667
10:57:21.386	0.025166
10:57:21.786	0.017617
10:57:22.086	0.023338
10:57:22.486	0.011478
10:57:22.786	0.006834
10:57:23.186	0.039933
10:57:23.486	0.024074
10:57:23.886	0.024278
10:57:24.186	0.018106
10:57:24.586	0.013707
10:57:24.886	0.014639
10:57:25.286	0.027640
10:57:25.586	0.025732
10:57:25.986	0.011299
10:57:26.286	0.019205
10:57:26.586	0.022923
10:57:26.986	0.018240
10:57:27.286	0.016871
10:57:27.686	0.030969
10:57:27.985	0.025999
10:57:28.386	0.028327
10:57:28.686	0.017201
10:57:29.086	0.022721
10:57:29.386	0.013836
10:57:29.786	0.039591
10:57:30.086	0.032534
10:57:30.485	0.017775
10:57:30.786	0.010324
10:57:31.186	0.025945
10:57:31.485	0.020599
10:57:31.886	0.025963
10:57:32.186	0.023344
10:57:32.486	0.020628
10:57:32.886	0.005486
10:57:33.186	0.021458
10:57:33.586	0.020873
10:57:33.886	0.019135
10:57:34.286	0.022299
10:57:34.586	0.022352
10:57:34.986	0.016844
10:57:35.286	0.016999
10:57:35.586	0.026166
10:57:35.986	0.027630
10:57:36.286	0.011583
10:57:36.686	0.034516
10:57:36.985	0.030471
10:57:37.386	0.021430
10:57:37.686	0.016654
10:57:38.086	0.019388
10:57:38.386	0.011078
10:57:38.786	0.021147
10:57:39.086	0.020114
10:57:39.486	-0.002238
10:57:39.786	0.032735
10:57:40.186	0.022516
10:57:40.485	0.028635
10:57:40.886	0.017982
10:57:41.186	0.013628
10:57:41.486	0.020580
10:57:41.886	0.028241
10:57:42.185	0.017845
10:57:42.585	0.013512
10:57:42.886	0.019917
10:57:43.186	0.017825
10:57:43.586	0.005419
10:57:43.986	0.022478
10:57:44.286	0.020326
10:57:44.586	0.020810
10:57:44.986	0.015574
10:57:45.286	0.020434
10:57:45.686	0.029559
10:57:45.986	0.029374
10:57:46.386	0.015297
10:57:46.686	0.019871
10:57:47.086	0.014644
10:57:47.386	0.016223
10:57:47.786	0.026011
10:57:48.086	0.023231
10:57:48.486	0.022561
10:57:48.786	0.017913
10:57:49.186	0.023926
10:57:49.486	0.022563
10:57:49.786	0.019293
10:57:50.186	0.009658
10:57:50.486	0.012896
10:57:50.786	-0.007236
10:57:51.186	0.031483
10:57:51.486	0.027611
10:57:51.886	0.021911
10:57:52.187	0.026237
10:57:52.486	0.021141
10:57:52.886	0.016671
10:57:53.186	0.015104
10:57:53.486	0.011793
10:57:53.886	0.023787
10:57:54.186	0.023611
10:57:54.586	0.027787
10:57:54.887	0.024143
10:57:55.286	0.031764
10:57:55.586	0.009581
10:57:55.986	0.020711
10:57:56.286	0.027837
10:57:56.686	0.018687
10:57:56.986	0.025311
10:57:57.386	0.014164
10:57:57.686	0.034114
10:57:58.086	0.023377
10:57:58.387	0.020678
10:57:58.686	0.017170
10:57:59.086	0.024540
10:57:59.386	0.029382
10:57:59.786	0.001673
10:58:00.086	0.023882
10:58:00.486	0.029620
10:58:00.786	0.017822
10:58:01.187	0.007293
10:58:01.486	0.030987
10:58:01.886	0.031448
10:58:02.186	0.022377
10:58:02.586	0.015447
10:58:02.887	0.019008
10:58:03.286	0.023358
10:58:03.586	0.019543
10:58:03.886	0.019630
10:58:04.286	0.029424
10:58:04.586	0.011733
10:58:04.986	0.025325
10:58:05.286	0.026629
10:58:05.686	0.012813
10:58:05.987	0.020950
10:58:06.386	0.040265
10:58:06.686	0.031332
10:58:07.086	0.009547
10:58:07.387	0.017647
10:58:07.786	0.021433
10:58:08.086	0.025411
10:58:08.486	0.021289
10:58:08.786	0.023120
10:58:09.186	0.028309
10:58:09.486	0.033531
10:58:09.886	0.027370
10:58:10.187	0.033965
10:58:10.586	0.026132
10:58:10.886	0.021010
10:58:11.286	0.017308
10:58:11.586	0.014870
10:58:11.986	0.025559
10:58:12.287	0.014906
10:58:12.686	0.018303
10:58:12.986	0.015914
10:58:13.386	0.029968
10:58:13.686	0.021204
10:58:13.986	0.019057
10:58:14.387	0.020911
10:58:14.686	0.018403
10:58:14.987	0.021950
10:58:15.386	0.022532
10:58:15.687	0.002145
10:58:16.087	0.021425
10:58:16.386	0.035081
10:58:16.786	0.028966
10:58:17.087	0.029092
10:58:17.486	0.032931
10:58:17.787	0.014682
10:58:18.187	0.018156
10:58:18.486	0.013873
10:58:18.887	0.007509
10:58:19.186	0.027154
10:58:19.586	0.031810
10:58:19.887	0.017912
10:58:20.286	0.022473
10:58:20.587	0.022281
10:58:20.886	0.019436
10:58:21.286	0.025053
10:58:21.586	0.028193
10:58:21.986	0.011166
10:58:22.286	0.003386
10:58:22.687	0.023761
10:58:22.987	0.011713
10:58:23.386	0.018484
10:58:23.686	0.027211
10:58:24.087	0.026519
10:58:24.386	0.034362
10:58:24.786	0.029636
10:58:25.086	0.009848
10:58:25.486	0.003881
10:58:25.786	0.046853
10:58:26.086	0.013300
10:58:26.486	0.008659
10:58:26.786	0.020683
10:58:27.187	0.020319
10:58:27.486	0.013332
10:58:27.886	0.014122
10:58:28.186	0.012528
10:58:28.586	0.032112
10:58:28.886	0.017014
10:58:29.286	0.015223
10:58:29.586	0.020638
10:58:29.987	0.010049
10:58:30.386	0.022321
10:58:30.687	0.003185
10:58:31.087	0.030222
10:58:31.388	0.019993
10:58:31.787	0.016830
10:58:32.086	0.026330
10:58:32.486	0.024641
10:58:32.786	0.017207
10:58:33.087	0.002917
10:58:33.487	0.015112
10:58:33.786	0.023442
10:58:34.187	0.000577
10:58:34.486	-0.011848
10:58:34.786	0.038546
10:58:35.187	0.033898
10:58:35.487	0.023687
10:58:35.886	0.031013
10:58:36.187	0.022452
10:58:36.587	0.022881
10:58:36.886	0.017261
10:58:37.287	0.031723
10:58:37.586	0.014072
10:58:37.987	0.019409
10:58:38.287	0.005180
10:58:38.687	0.043004
10:58:38.987	0.020377
10:58:39.386	0.026746
10:58:39.686	0.021588
10:58:40.087	0.011295
10:58:40.386	0.016536
10:58:40.786	0.028001
10:58:41.086	0.023606
10:58:41.487	0.017604
10:58:41.786	0.022247
10:58:42.187	0.028798
10:58:42.487	0.027674
10:58:42.886	0.013439
10:58:43.187	0.010711
10:58:43.586	0.020091
10:58:43.887	0.024494
10:58:44.287	0.003629
10:58:44.586	0.020220
10:58:44.987	0.036965
10:58:45.286	0.034549
10:58:45.687	0.023474
10:58:45.987	0.016609
10:58:46.386	0.017124
10:58:46.687	0.021343
10:58:47.087	0.018375
10:58:47.386	0.023514
10:58:47.787	0.031706
10:58:48.087	0.018886
10:58:48.487	0.029412
10:58:48.786	0.025460
10:58:49.187	0.030096
10:58:49.486	0.023779
10:58:49.886	0.009020
10:58:50.187	0.020612
10:58:50.587	0.013674
10:58:50.887	0.017532
10:58:51.187	0.022674
10:58:51.587	0.017212
10:58:51.887	0.014900
10:58:52.187	0.020205
10:58:52.586	0.028258
10:58:52.886	0.031492
10:58:53.286	0.008819
10:58:53.586	0.012959
10:58:53.987	0.020307
10:58:54.286	0.021555
10:58:54.686	0.023332
10:58:54.987	0.016728
10:58:55.386	-0.006772
10:58:55.686	0.032413
10:58:55.987	0.034350
10:58:56.386	0.034969
10:58:56.686	0.022846
10:58:56.987	0.023513
10:58:57.387	0.028657
10:58:57.687	0.019956
10:58:57.987	-0.004031
10:58:58.387	0.027461
10:58:58.686	0.019934
10:58:59.086	0.015084
10:58:59.386	0.021466
10:58:59.787	0.020458
10:59:00.087	0.021361
10:59:00.486	0.018584
10:59:00.786	0.024949
10:59:01.187	0.024533
10:59:01.487	0.009670
10:59:01.886	0.032403
10:59:02.187	0.023382
10:59:02.587	0.017513
10:59:02.886	0.032414
10:59:03.186	0.022223
10:59:03.587	0.015144
10:59:03.887	0.012938
10:59:04.287	0.015277
10:59:04.586	0.020298
10:59:04.986	0.016795
10:59:05.287	0.029118
10:59:05.686	0.035637
10:59:05.987	0.020937
10:59:06.387	0.024236
10:59:06.687	0.037247
10:59:07.086	0.023082
10:59:07.387	0.010806
10:59:07.786	0.019756
10:59:08.087	0.021951
10:59:08.487	0.008326
10:59:08.787	0.012084
10:59:09.186	0.019458
10:59:09.486	0.020270
10:59:09.887	0.024357
10:59:10.187	0.010448
10:59:10.587	0.027331
10:59:10.887	0.020997
10:59:11.186	0.017648
10:59:11.586	0.017225
10:59:11.886	0.032179
10:59:12.287	0.035793
10:59:12.587	0.014088
10:59:12.987	0.023758
10:59:13.286	0.022123
10:59:13.687	0.008192
10:59:13.986	0.023983
10:59:14.386	0.015597
10:59:14.686	0.024020
10:59:15.086	0.006133
10:59:15.388	0.002275
10:59:15.786	0.027353
10:59:16.087	0.021031
10:59:16.487	0.026822
10:59:16.787	0.017248
10:59:17.186	0.023495
10:59:17.487	0.025485
10:59:17.886	0.029168
10:59:18.186	0.027953
10:59:18.587	0.012507
10:59:18.887	0.026406
10:59:19.287	0.043643
10:59:19.587	0.030468
10:59:19.986	0.030437
10:59:20.286	0.012974
10:59:20.686	0.016018
10:59:20.986	0.005551
10:59:21.287	0.029233
10:59:21.687	0.022351
10:59:21.986	0.022616
10:59:22.387	0.021587
10:59:22.686	0.020610
10:59:23.086	0.024559
10:59:23.386	0.025074
10:59:23.787	0.015873
10:59:24.086	0.005152
10:59:24.387	0.024862
10:59:24.786	0.002408
10:59:25.087	0.018404
10:59:25.386	0.030081
10:59:25.786	0.023790
10:59:26.087	0.021714
10:59:26.386	0.011178
10:59:26.786	0.021577
10:59:27.087	0.018269
10:59:27.487	-0.000290
10:59:27.787	0.045612
10:59:28.186	0.015392
10:59:28.487	0.034459
10:59:28.887	0.016720
10:59:29.187	0.024586
10:59:29.587	0.021160
10:59:29.887	0.028000
10:59:30.187	0.024286
10:59:30.586	-0.005789
10:59:30.886	0.034546
10:59:31.187	0.034753
10:59:31.587	0.014980
10:59:31.886	0.016205
10:59:32.187	0.023443
10:59:32.586	0.035938
10:59:32.886	0.029598
10:59:33.286	0.026055
10:59:33.587	0.017279
10:59:33.986	-0.006341
10:59:34.286	0.032276
10:59:34.687	0.028602
10:59:34.986	0.020777
10:59:35.287	0.028618
10:59:35.687	0.034295
10:59:35.987	0.031797
10:59:36.386	0.017781
10:59:36.687	0.020342
10:59:37.086	0.016338
10:59:37.387	0.012811
10:59:37.787	0.037860
10:59:38.086	0.033579
10:59:38.487	0.029781
10:59:38.787	0.026936
10:59:39.186	0.021064
10:59:39.486	0.018330
10:59:39.886	0.022217
10:59:40.186	0.018988
10:59:40.587	0.020391
10:59:40.886	0.012496
10:59:41.187	0.018219
10:59:41.587	0.013320
10:59:41.887	0.013518
10:59:42.187	0.017336
10:59:42.586	0.019471
10:59:42.888	0.025216
10:59:43.287	0.026636
10:59:43.587	0.023778
10:59:43.986	0.011417
10:59:44.286	0.032202
10:59:44.587	0.027279
10:59:44.987	0.030048
10:59:45.286	0.027842
10:59:45.587	0.024150
10:59:45.987	0.022775
10:59:46.286	0.028678
10:59:46.687	0.028101
10:59:46.987	0.023361
10:59:47.386	0.018596
10:59:47.687	0.023608
10:59:48.086	0.029228
10:59:48.386	0.024130
10:59:48.787	0.019481
10:59:49.087	0.017690
10:59:49.487	0.013836
10:59:49.786	0.005633
10:59:50.187	0.021658
10:59:50.487	0.025820
10:59:50.887	0.033266
10:59:51.186	0.022785
10:59:51.586	0.021101
10:59:51.886	0.015589
10:59:52.287	0.019509
10:59:52.587	0.023610
10:59:52.987	0.020973
10:59:53.286	0.024985
10:59:53.587	0.025793
10:59:53.986	0.017880
10:59:54.286	0.006122
10:59:54.687	0.026792
10:59:54.986	0.025238
10:59:55.387	0.027715
10:59:55.687	0.021625
10:59:56.087	0.021772
10:59:56.387	0.010680
10:59:56.786	0.027792
10:59:57.086	0.022361
10:59:57.487	0.027554
10:59:57.886	0.029380
10:59:58.187	0.021412
10:59:58.487	0.025372
10:59:58.886	0.028695
10:59:59.186	0.025126
10:59:59.487	0.032135
10:59:59.887	0.021939
11:00:00.186	0.015975
11:00:00.487	0.012126
11:00:00.887	0.021071
11:00:01.187	0.020910
11:00:01.587	0.002498
11:00:01.887	0.017516
11:00:02.287	0.015002
11:00:02.586	0.021949
11:00:02.986	0.022479
11:00:03.287	0.036228
11:00:03.686	0.017940
11:00:03.987	0.008757
11:00:04.387	0.003003
11:00:04.787	0.045942
11:00:05.087	0.034866
11:00:05.486	0.027526
11:00:05.787	0.019807
11:00:06.187	0.012743
11:00:06.487	0.024366
11:00:06.887	0.024268
11:00:07.187	0.028049
11:00:07.487	0.030562
11:00:07.886	0.026400
11:00:08.186	0.012726
11:00:08.587	0.023180
11:00:08.886	0.033274
11:00:09.287	0.032909
11:00:09.586	0.035403
11:00:09.987	0.013508
11:00:10.286	0.024772
11:00:10.687	0.022079
11:00:10.987	0.025218
11:00:11.386	0.023083
11:00:11.687	0.024906
11:00:12.087	0.023416
11:00:12.387	0.024505
11:00:12.787	0.019454
11:00:13.087	0.022060
11:00:13.487	0.038222
11:00:13.787	0.003601
11:00:14.187	0.030817
11:00:14.487	0.043048
11:00:14.887	-0.002391
11:00:15.187	0.021593
11:00:15.587	0.035021
11:00:15.886	0.023374
11:00:16.287	0.017943
11:00:16.587	-0.008765
11:00:16.987	0.018253
11:00:17.286	0.024798
11:00:17.686	0.026651
11:00:17.987	0.024336
11:00:18.287	0.030216
11:00:18.687	0.001636
11:00:18.987	0.016369
11:00:19.387	0.027448
11:00:19.687	0.024857
11:00:19.987	0.030523
11:00:20.387	0.034554
11:00:20.686	0.021481
11:00:21.087	0.033244
11:00:21.387	0.021589
11:00:21.787	0.015425
11:00:22.087	0.019730
11:00:22.487	0.040728
11:00:22.787	0.040191
11:00:23.187	0.040087
11:00:23.488	0.036249
11:00:23.887	0.036423
11:00:24.186	0.031274
11:00:24.587	0.011842
11:00:24.887	0.044101
11:00:25.287	0.041191
11:00:25.586	0.024297
11:00:25.987	0.053418
11:00:26.287	0.053318
11:00:26.687	0.040166
11:00:26.987	0.027227
11:00:27.387	0.038731
11:00:27.687	0.038367
11:00:28.087	0.038789
11:00:28.388	0.051624
11:00:28.687	0.038852
11:00:29.087	0.045140
11:00:29.388	0.056168
11:00:29.787	0.035028
11:00:30.087	0.016231
11:00:30.487	0.021050
11:00:30.787	0.040823
11:00:31.187	0.051955
11:00:31.487	0.057952
11:00:31.887	0.037657
11:00:32.187	0.029075
11:00:32.587	0.044439
11:00:32.887	0.050375
11:00:33.287	0.051332
11:00:33.587	0.055280
11:00:33.987	0.040746
11:00:34.287	0.048607
11:00:34.687	0.031447
11:00:34.987	0.035255
11:00:35.387	0.046042
11:00:35.687	0.044983
11:00:36.087	0.052058
11:00:36.387	0.050282
11:00:36.687	0.040073
11:00:37.086	0.044092
11:00:37.387	0.054560
11:00:37.787	0.045281
11:00:38.087	0.037442
11:00:38.487	0.048623
11:00:38.787	0.054923
11:00:39.187	0.054877
11:00:39.487	0.054198
11:00:39.887	0.035531
11:00:40.187	0.046827
11:00:40.587	0.063568
11:00:40.887	0.053966
11:00:41.287	0.060489
11:00:41.587	0.047216
11:00:41.887	0.053469
11:00:42.287	0.054983
11:00:42.587	0.046092
11:00:42.987	0.057169
11:00:43.287	0.060475
11:00:43.687	0.048603
11:00:43.987	0.052136
11:00:44.387	0.041101
11:00:44.687	0.040701
11:00:45.087	0.031650
11:00:45.387	0.011989
11:00:45.787	0.016233
11:00:46.087	0.040297
11:00:46.487	0.039367
11:00:46.787	0.027845
11:00:47.187	0.033109
11:00:47.487	0.017336
11:00:47.887	0.025552
11:00:48.187	0.016848
11:00:48.587	0.015500
11:00:48.887	0.011216
11:00:49.287	0.026125
11:00:49.587	0.021568
11:00:49.987	-0.005654
11:00:50.287	0.008366
11:00:50.687	0.034939
11:00:50.987	0.012406
11:00:51.387	0.010370
11:00:51.687	0.031430
11:00:52.087	0.001335
11:00:52.387	0.048394
11:00:52.787	0.013240
11:00:53.087	0.002186
11:00:53.487	-0.011386
11:00:53.787	0.044720
11:00:54.187	0.001063
11:00:54.487	0.011364
11:00:54.887	0.031653
11:00:55.187	0.015622
11:00:55.587	0.029212
11:00:55.887	0.027973
11:00:56.287	0.016863
11:00:56.587	0.020492
11:00:56.987	0.013317
11:00:57.287	0.024146
11:00:57.687	0.019258
11:00:57.987	0.021570
11:00:58.387	0.019101
11:00:58.687	0.019530
11:00:59.087	0.003722
11:00:59.388	0.024964
11:00:59.787	0.027616
11:01:00.087	0.013783
11:01:00.487	0.023595
11:01:00.787	0.019446
11:01:01.187	0.030835
11:01:01.487	0.022009
11:01:01.888	0.022217
11:01:02.187	0.033573
11:01:02.587	0.012114
11:01:02.887	0.024164
11:01:03.287	0.012790
11:01:03.587	0.011061
11:01:03.887	0.017822
11:01:04.287	0.012794
11:01:04.587	0.001344
11:01:04.987	0.034541
11:01:05.288	0.030499
11:01:05.688	0.022806
11:01:05.987	0.018062
11:01:06.387	0.014356
11:01:06.688	0.037070
11:01:06.987	0.014540
11:01:07.387	0.019111
11:01:07.687	0.021342
11:01:08.087	0.010843
11:01:08.388	0.030486
11:01:08.787	0.018887
11:01:09.088	0.012617
11:01:09.487	0.017373
11:01:09.788	0.023828
11:01:10.187	0.026212
11:01:10.487	0.021993
11:01:10.887	0.022253
11:01:11.188	0.021827
11:01:11.587	0.036127
11:01:11.887	0.033051
11:01:12.187	0.021343
11:01:12.587	0.016818
11:01:12.887	0.023890
11:01:13.287	0.019836
11:01:13.587	0.012837
11:01:13.888	0.014110
11:01:14.288	0.044024
11:01:14.587	0.029111
11:01:14.988	0.012412
11:01:15.287	0.017941
11:01:15.687	0.013824
11:01:15.987	0.018384
11:01:16.387	0.012493
11:01:16.688	0.009799
11:01:17.087	0.016154
11:01:17.388	0.014072
11:01:17.788	0.031318
11:01:18.087	-0.003459
11:01:18.487	0.031436
11:01:18.788	0.038073
11:01:19.087	0.007732
11:01:19.487	0.028213
11:01:19.787	0.028711
11:01:20.187	0.019473
11:01:20.488	0.017997
11:01:20.888	0.023451
11:01:21.187	0.034406
11:01:21.587	0.015680
11:01:21.888	0.037669
11:01:22.288	0.008843
11:01:22.587	0.023928
11:01:22.987	0.028149
11:01:23.287	0.021026
11:01:23.687	0.032928
11:01:23.987	0.030036
11:01:24.388	0.002231
11:01:24.688	-0.005570
11:01:24.987	0.027354
11:01:25.387	0.031763
11:01:25.687	0.033750
11:01:26.087	0.044867
11:01:26.388	0.034529
11:01:26.787	0.017441
11:01:27.087	0.017053
11:01:27.487	0.025670
11:01:27.787	0.019303
11:01:28.188	0.017759
11:01:28.487	0.020460
11:01:28.887	0.022472
11:01:29.188	0.020982
11:01:29.587	0.020100
11:01:29.888	0.020180
11:01:30.188	0.030500
11:01:30.588	0.067327
11:01:30.887	0.142548
11:01:31.287	0.189193
11:01:31.588	0.317025
11:01:31.887	0.554137
11:01:32.287	1.034464
11:01:32.587	1.356158
11:01:32.987	1.979965
11:01:33.288	2.670816
11:01:34.587	2.572420
11:01:34.888	2.399331
11:01:35.188	0.434885
11:01:36.487	0.212387
11:01:36.787	0.132095
11:01:37.088	0.055097
11:01:37.487	0.034294
11:01:37.788	0.037648
11:01:38.187	0.029785
11:01:38.487	0.023330
11:01:38.888	0.029091
11:01:39.188	0.029385
11:01:39.588	0.033972
11:01:39.887	0.022513
11:01:40.287	0.023087
11:01:40.587	0.030478
11:01:40.988	0.022073
11:01:41.288	0.019828
11:01:41.688	0.021917
11:01:41.988	0.017716
11:01:42.288	0.022004
11:01:42.688	0.031730
11:01:42.988	0.031125
11:01:43.388	0.025718
11:01:43.688	0.025486
11:01:44.087	0.016054
11:01:44.388	0.017038
11:01:44.788	0.029688
11:01:45.088	0.030145
11:01:45.488	0.015857
11:01:45.788	0.017592
11:01:46.188	0.013419
11:01:46.488	0.025552
11:01:46.887	0.025843
11:01:47.188	0.016892
11:01:47.588	0.016439
11:01:47.888	0.023655
11:01:48.288	0.022708
11:01:48.587	0.020241
11:01:48.987	0.018977
11:01:49.287	0.025597
11:01:49.688	0.022695
11:01:49.988	0.022668
11:01:50.388	0.025416
11:01:50.687	0.023379
11:01:51.088	0.014199
11:01:51.388	0.024645
11:01:51.788	0.038233
11:01:52.087	0.026361
11:01:52.488	0.024790
11:01:52.787	0.028064
11:01:53.188	0.028747
11:01:53.488	0.023894
11:01:53.888	0.017797
11:01:54.187	0.028375
11:01:54.587	0.034267
11:01:54.888	0.020799
11:01:55.188	0.011887
11:01:55.587	0.023673
11:01:55.888	0.021798
11:01:56.287	0.023534
11:01:56.588	0.025150
11:01:56.987	0.015441
11:01:57.288	0.016798
11:01:57.687	0.010830
11:01:57.988	0.016376
11:01:58.388	0.028970
11:01:58.687	0.024039
11:01:59.087	0.015868
11:01:59.388	0.010236
11:01:59.788	0.022877
11:02:00.087	0.027148
11:02:00.488	0.022370
11:02:00.787	0.007526
11:02:01.188	0.019227
11:02:01.488	0.019069
11:02:01.888	0.017901
11:02:02.188	0.009664
11:02:02.587	0.006059
11:02:02.887	0.020881
11:02:03.287	0.020998
11:02:03.587	0.018642
11:02:03.988	0.019888
11:02:04.287	0.013832
11:02:04.688	0.024382
11:02:05.088	0.016940
11:02:05.388	0.019058
11:02:05.788	0.017895
11:02:06.087	0.018511
11:02:06.388	0.018129
11:02:06.787	0.012813
11:02:07.087	0.023138
11:02:07.387	0.020154
11:02:07.788	0.011499
11:02:08.087	0.010049
11:02:08.388	0.018587
11:02:08.787	0.015215
11:02:09.088	0.024387
11:02:09.387	0.025912
11:02:09.788	0.027095
11:02:10.087	0.034760
11:02:10.388	0.014367
11:02:10.788	0.017431
11:02:11.087	0.017252
11:02:11.388	0.012176
11:02:11.788	0.017519
11:02:12.088	0.013363
11:02:12.488	0.023226
11:02:12.788	0.020605
11:02:13.187	0.020392
11:02:13.487	0.023501
11:02:13.888	0.029026
11:02:14.188	0.029480
11:02:14.488	0.029303
11:02:14.887	0.022310
11:02:15.187	0.025475
11:02:15.588	0.029858
11:02:15.887	0.040836
11:02:16.188	0.043903
11:02:16.588	0.050938
11:02:16.888	0.053598
11:02:17.187	0.075673
11:02:17.588	0.090651
11:02:17.887	0.099158
11:02:18.188	0.109227
11:02:18.587	0.099699
11:02:18.888	0.101350
11:02:19.188	0.115782
11:02:19.587	0.132044
11:02:19.887	0.120296
11:02:20.187	0.121787
11:02:20.588	0.132703
11:02:20.887	0.121027
11:02:21.188	0.122730
11:02:21.588	0.128225
11:02:21.888	0.134886
11:02:22.188	0.127811
11:02:22.587	0.116645
11:02:22.887	0.128615
11:02:23.187	0.134599
11:02:23.587	0.140638
11:02:23.887	0.129758
11:02:24.187	0.129248
11:02:24.588	0.132293
11:02:24.888	0.116491
11:02:25.188	0.110311
11:02:25.588	0.125197
11:02:25.887	0.139227
11:02:26.188	0.151645
11:02:26.588	0.144540
11:02:26.888	0.149320
11:02:27.188	0.150969
11:02:27.588	0.150560
11:02:27.887	0.144692
11:02:28.188	0.157945
11:02:28.588	0.140324
11:02:28.887	0.147882
11:02:29.187	0.141291
11:02:29.587	0.145263
11:02:29.888	0.145212
11:02:30.188	0.130009
11:02:30.587	0.128104
11:02:30.888	0.135025
11:02:31.187	0.126855
11:02:31.587	0.132135
11:02:31.887	0.140058
11:02:32.188	0.155444
11:02:32.587	0.133441
11:02:32.887	0.140041
11:02:33.288	0.143065
11:02:33.587	0.127633
11:02:33.987	0.131448
11:02:34.287	0.133043
11:02:34.587	0.131789
11:02:34.988	0.143863
11:02:35.289	0.150454
11:02:35.588	0.144143
11:02:35.987	0.138713
11:02:36.288	0.132327
11:02:36.688	0.141617
11:02:36.988	0.139304
11:02:37.288	0.134592
11:02:37.688	0.133487
11:02:37.988	0.128531
11:02:38.287	0.117458
11:02:38.687	0.147639
11:02:38.988	0.139910
11:02:39.288	0.152677
11:02:39.687	0.136751
11:02:39.988	0.129006
11:02:40.288	0.121030
11:02:40.688	0.121849
11:02:40.987	0.124954
11:02:41.387	0.136246
11:02:41.688	0.139216
11:02:42.088	0.121469
11:02:42.388	0.114485
11:02:42.688	0.132768
11:02:43.088	0.127091
11:02:43.388	0.124982
11:02:43.788	0.106043
11:02:44.088	0.112323
11:02:44.388	0.115667
11:02:44.787	0.106544
11:02:45.087	0.107007
11:02:45.487	0.106518
11:02:45.788	0.096608
11:02:46.088	0.093215
11:02:46.488	0.098630
11:02:46.788	0.084960
11:02:47.187	0.084386
11:02:47.488	0.071316
11:02:47.788	0.080146
11:02:48.188	0.078226
11:02:48.488	0.077652
11:02:48.888	0.070087
11:02:49.188	0.070804
11:02:49.487	0.059550
11:02:49.888	0.056009
11:02:50.188	0.058393
11:02:50.588	0.050080
11:02:50.888	0.055342
11:02:51.288	0.048163
11:02:51.588	0.049462
11:02:51.988	0.040998
11:02:52.288	0.051103
11:02:52.688	0.060642
11:02:52.988	0.062335
11:02:53.287	0.047051
11:02:53.688	0.058676
11:02:53.987	0.067867
11:02:54.388	0.052082
11:02:54.688	0.048809
11:02:55.088	0.043085
11:02:55.388	0.046290
11:02:55.688	0.037584
11:02:56.087	0.037675
11:02:56.388	0.033539
11:02:56.688	0.041745
11:02:57.088	0.033756
11:02:57.388	0.038742
11:02:57.788	0.071136
11:02:58.088	0.065640
11:02:58.388	0.060763
11:02:58.787	0.056347
11:02:59.088	0.057876
11:02:59.388	0.074207
11:02:59.788	0.069926
11:03:00.087	0.057805
11:03:00.388	0.062535
11:03:00.787	0.086983
11:03:01.088	0.085682
11:03:01.388	0.077064
11:03:01.788	0.102529
11:03:02.088	0.081762
11:03:02.387	0.090318
11:03:02.788	0.086456
11:03:03.087	0.073096
11:03:03.388	0.059097
11:03:03.788	0.067107
11:03:04.088	0.069954
11:03:04.488	0.063866
11:03:04.788	0.051671
11:03:05.188	0.053054
11:03:05.488	0.052935
11:03:05.888	0.060048
11:03:06.188	0.056152
11:03:06.488	0.049549
11:03:06.888	0.030670
11:03:07.188	0.039925
11:03:07.487	0.047442
11:03:07.888	0.043737
11:03:08.188	0.049097
11:03:08.588	0.042794
11:03:08.887	0.034420
11:03:09.288	0.040811
11:03:09.587	0.044165
11:03:09.988	0.048450
11:03:10.288	0.050306
11:03:10.587	0.044991
11:03:10.988	0.042716
11:03:11.288	0.033582
11:03:11.687	0.050660
11:03:11.988	0.048111
11:03:12.288	0.042196
11:03:12.688	0.047162
11:03:12.988	0.043394
11:03:13.387	0.047486
11:03:13.688	0.050129
11:03:13.988	0.056305
11:03:14.388	0.054572
11:03:14.688	0.036260
11:03:15.088	0.054641
11:03:15.388	0.068569
11:03:15.688	0.070858
11:03:16.087	0.064091
11:03:16.388	0.052637
11:03:16.787	0.058189
11:03:17.088	0.055769
11:03:17.488	0.043447
11:03:17.787	0.048468
11:03:18.187	0.029203
11:03:18.487	0.036705
11:03:18.888	0.032134
11:03:19.188	0.035744
11:03:19.488	0.030835
11:03:19.887	0.040051
11:03:20.188	0.036936
11:03:20.587	0.040594
11:03:20.888	0.031136
11:03:21.188	0.035758
11:03:21.588	0.035225
11:03:21.888	0.031259
11:03:22.288	0.038332
11:03:22.588	0.035927
11:03:22.888	0.046838
11:03:23.288	0.036289
11:03:23.588	0.039816
11:03:23.988	0.039446
11:03:24.287	0.033590
11:03:24.588	0.042983
11:03:24.988	0.036434
11:03:25.288	0.030109
11:03:25.687	0.035603
11:03:25.988	0.033279
11:03:26.388	0.034240
11:03:26.687	0.037763
11:03:26.988	0.045528
11:03:27.388	0.041044
11:03:27.688	0.048189
11:03:28.088	0.047294
11:03:28.388	0.051845
11:03:28.687	0.046841
11:03:29.088	0.040826
11:03:29.387	0.043428
11:03:29.788	0.055070
11:03:30.088	0.047897
11:03:30.488	0.045483
11:03:30.788	0.042018
11:03:31.187	0.041088
11:03:31.488	0.041052
11:03:31.788	0.048347
11:03:32.188	0.043041
11:03:32.488	0.038500
11:03:32.888	0.050633
11:03:33.188	0.046302
11:03:33.588	0.036744
11:03:33.888	0.035848
11:03:34.288	0.050235
11:03:34.588	0.047867
11:03:34.888	0.037211
11:03:35.288	0.035891
11:03:35.588	0.051310
11:03:35.888	0.045980
11:03:36.288	0.045508
11:03:36.588	0.048517
11:03:36.888	0.055181
11:03:37.288	0.049507
11:03:37.588	0.044756
11:03:37.888	0.057622
11:03:38.288	0.042985
11:03:38.588	0.043109
11:03:38.888	0.036381
11:03:39.288	0.036014
11:03:39.588	0.038929
11:03:39.988	0.047012
11:03:40.289	0.042200
11:03:40.588	0.036949
11:03:40.988	0.034870
11:03:41.288	0.040928
11:03:41.688	0.029016
11:03:41.988	0.025882
11:03:42.288	0.034348
11:03:42.687	0.030079
11:03:42.988	0.031542
11:03:43.388	0.037710
11:03:43.688	0.034762
11:03:43.988	0.032755
11:03:44.388	0.040079
11:03:44.687	0.033356
11:03:45.088	0.032908
11:03:45.388	0.046532
11:03:45.688	0.047253
11:03:46.087	0.042569
11:03:46.388	0.031904
11:03:46.788	0.017291
11:03:47.088	0.026628
11:03:47.488	0.039473
11:03:47.788	0.019410
11:03:48.188	0.030221
11:03:48.488	0.031067
11:03:48.788	0.030166
11:03:49.188	0.029285
11:03:49.488	0.035118
11:03:49.788	0.029076
11:03:50.188	0.012948
11:03:50.488	0.019239
11:03:50.888	0.033342
11:03:51.188	0.026601
11:03:51.588	0.015971
11:03:51.888	0.021062
11:03:52.288	0.024640
11:03:52.588	0.030080
11:03:52.888	0.036325
11:03:53.288	0.027994
11:03:53.588	0.028125
11:03:53.988	0.018907
11:03:54.288	0.021191
11:03:54.588	0.022501
11:03:54.988	0.024933
11:03:55.288	0.031176
11:03:55.688	0.045022
11:03:55.988	0.046600
11:03:56.388	0.034043
11:03:56.688	0.040059
11:03:56.988	0.041098
11:03:57.388	0.066137
11:03:57.688	0.075360
11:03:57.988	0.081821
11:03:58.388	0.098606
11:03:58.688	0.161797
11:03:59.088	0.256766
11:03:59.388	0.316541
11:03:59.788	0.372713
11:04:00.088	0.400169
11:04:00.488	0.492380
11:04:00.788	0.480835
11:04:01.188	0.482168
11:04:01.488	0.435550
11:04:01.788	0.346896
11:04:02.188	0.289392
11:04:02.488	0.269696
11:04:02.788	0.195334
11:04:03.188	0.157371
11:04:03.488	0.135556
11:04:03.788	0.102421
11:04:04.188	0.068128
11:04:04.488	0.057694
11:04:04.888	0.047764
11:04:05.188	0.039633
11:04:05.588	0.035670
11:04:05.888	0.037971
11:04:06.288	0.035293
11:04:06.588	0.029168
11:04:06.888	0.029875
11:04:07.288	0.032339
11:04:07.588	0.038661
11:04:07.988	0.038703
11:04:08.288	0.021939
11:04:08.688	0.032286
11:04:08.988	0.035979
11:04:09.388	0.026703
11:04:09.688	0.020814
11:04:10.088	0.029801
11:04:10.389	0.033878
11:04:10.789	0.034600
11:04:11.088	0.027678
11:04:11.488	0.025810
11:04:11.788	0.032291
11:04:12.088	0.030085
11:04:12.488	0.016564
11:04:12.788	0.028366
11:04:13.188	0.033489
11:04:13.489	0.039720
11:04:13.888	0.032478
11:04:14.188	-0.005079
11:04:14.588	0.013696
11:04:14.888	0.028376
11:04:15.289	0.024113
11:04:15.588	0.027756
11:04:15.888	0.013678
11:04:16.288	0.022209
11:04:16.588	0.020440
11:04:16.889	0.031618
11:04:17.288	0.043850
11:04:17.588	0.023859
11:04:17.889	0.011024
11:04:18.289	0.018617
11:04:18.589	0.028102
11:04:18.988	0.029895
11:04:19.288	0.005478
11:04:19.588	0.002978
11:04:19.988	0.022866
11:04:20.288	0.019763
11:04:20.688	0.013877
11:04:20.988	0.014560
11:04:21.288	0.025234
11:04:21.688	0.030391
11:04:21.989	0.027399
11:04:22.389	0.032631
11:04:22.689	0.011355
11:04:23.088	0.029885
11:04:23.388	0.028396
11:04:23.788	0.024132
11:04:24.089	0.028135
11:04:24.388	0.024820
11:04:24.789	0.023551
11:04:25.089	0.028112
11:04:25.388	0.031523
11:04:25.788	0.026485
11:04:26.088	0.039463
11:04:26.488	0.013799
11:04:26.788	-0.002726
11:04:27.088	0.043458
11:04:27.489	0.036916
11:04:27.788	0.040149
11:04:28.189	0.043931
11:04:28.488	0.045801
11:04:28.888	0.037064
11:04:29.189	0.056304
11:04:29.589	0.048170
11:04:29.888	0.059405
11:04:30.189	0.054040
11:04:30.589	0.061101
11:04:30.888	0.057525
11:04:31.189	0.045704
11:04:31.588	0.056031
11:04:31.889	0.053486
11:04:32.188	0.043939
11:04:32.589	0.042732
11:04:32.888	0.043569
11:04:33.189	0.021785
11:04:33.589	0.032675
11:04:33.888	0.032090
11:04:34.288	0.030076
11:04:34.588	0.033969
11:04:34.988	0.030738
11:04:35.288	0.029224
11:04:35.688	0.025443
11:04:35.989	0.013650
11:04:36.388	0.030102
11:04:36.689	0.021746
11:04:36.989	0.014274
11:04:37.388	0.034311
11:04:37.689	0.024753
11:04:38.089	0.021673
11:04:38.389	0.016850
11:04:38.689	-0.004255
11:04:39.089	0.011294
11:04:39.389	0.022358
11:04:39.788	0.016567
11:04:40.089	0.005375
11:04:40.389	0.019595
11:04:40.789	0.032663
11:04:41.088	0.016718
11:04:41.489	0.014496
11:04:41.788	0.011582
11:04:42.089	0.011003
11:04:42.488	0.031648
11:04:42.788	0.033722
11:04:43.189	0.020914
11:04:43.489	0.029348
11:04:43.889	0.023853
11:04:44.188	0.026638
11:04:44.488	0.026998
11:04:44.888	0.012492
11:04:45.188	0.008884
11:04:45.589	-0.001187
11:04:45.889	0.002065
11:04:46.188	0.022414
11:04:46.589	0.024685
11:04:46.889	0.016815
11:04:47.289	0.008596
11:04:47.588	0.023049
11:04:47.988	0.038452
11:04:48.289	0.035757
11:04:48.689	0.027974
11:04:48.988	0.028103
11:04:49.288	0.020738
11:04:49.688	0.006900
11:04:49.988	0.028951
11:04:50.388	0.018193
11:04:50.688	0.012780
11:04:51.088	0.012250
11:04:51.389	0.009599
11:04:51.789	0.021559
11:04:52.089	0.022657
11:04:52.489	0.028813
11:04:52.789	0.020098
11:04:53.088	0.030690
11:04:53.489	0.013254
11:04:53.788	0.021528
11:04:54.188	0.017347
11:04:54.488	0.024968
11:04:54.788	0.039874
11:04:55.188	0.031067
11:04:55.489	0.014257
11:04:55.889	0.006267
11:04:56.188	0.016833
11:04:56.588	0.016015
11:04:56.889	0.022975
11:04:57.189	0.020149
11:04:57.589	0.018318
11:04:57.890	0.017038
11:04:58.188	0.016020
11:04:58.589	0.023645
11:04:58.889	0.019753
11:04:59.288	0.003486
11:04:59.589	0.011194
11:04:59.989	0.013390
11:05:00.289	0.020595
11:05:00.588	0.022404
11:05:00.989	0.014624
11:05:01.289	0.017740
11:05:01.689	0.030700
11:05:01.988	0.021419
11:05:02.289	0.017066
11:05:02.688	0.019779
11:05:02.989	0.030028
11:05:03.289	0.018755
11:05:03.689	0.001662
11:05:03.988	0.013609
11:05:04.388	0.029483
11:05:04.689	0.026837
11:05:05.088	0.026568
11:05:05.389	0.014083
11:05:05.789	0.023027
11:05:06.088	0.021270
11:05:06.488	0.008087
11:05:06.788	0.018922
11:05:07.189	0.010244
11:05:07.488	0.013542
11:05:07.788	0.029332
11:05:08.189	0.022615
11:05:08.489	0.041033
11:05:08.889	0.015735
11:05:09.188	0.018179
11:05:09.489	0.025415
11:05:09.889	0.029526
11:05:10.188	0.020200
11:05:10.489	0.016802
11:05:10.889	0.013336
11:05:11.189	0.026850
11:05:11.589	0.022727
11:05:11.888	0.008283
11:05:12.289	0.016978
11:05:12.588	0.023165
11:05:12.989	0.026069
11:05:13.288	0.009015
11:05:13.589	0.012114
11:05:13.989	0.009974
11:05:14.288	0.023679
11:05:14.689	0.020443
11:05:14.989	0.006222
11:05:15.288	0.026186
11:05:15.689	0.029900
11:05:15.989	0.020191
11:05:16.389	0.007879
11:05:16.688	0.016604
11:05:17.088	0.013641
11:05:17.389	0.021461
11:05:17.689	0.032345
11:05:18.088	0.021754
11:05:18.388	0.013353
11:05:18.789	0.013311
11:05:19.088	0.014907
11:05:19.389	0.027361
11:05:19.789	0.016742
11:05:20.089	0.028695
11:05:20.489	0.023100
11:05:20.788	0.019193
11:05:21.088	0.034753
11:05:21.488	0.016476
11:05:21.889	0.009769
11:05:22.189	0.016911
11:05:22.588	0.005080
11:05:22.888	0.018294
11:05:23.289	0.019068
11:05:23.588	0.024805
11:05:23.989	0.013770
11:05:24.289	0.012565
11:05:24.588	0.009384
11:05:24.989	0.014571
11:05:25.289	0.016791
11:05:25.689	0.017109
11:05:25.989	0.017705
11:05:26.289	0.016281
11:05:26.689	0.022934
11:05:26.989	0.016630
11:05:27.388	0.025923
11:05:27.688	0.028198
11:05:28.089	0.022889
11:05:28.389	0.015999
11:05:28.689	0.018577
11:05:29.089	0.015478
11:05:29.389	0.011966
11:05:29.788	0.013061
11:05:30.088	0.016272
11:05:30.389	0.019009
11:05:30.788	0.016269
11:05:31.089	0.018239
11:05:31.488	0.016229
11:05:31.788	0.015184
11:05:32.189	0.020874
11:05:32.489	0.019961
11:05:32.888	0.030528
11:05:33.189	0.021896
11:05:33.489	0.015654
11:05:33.888	0.014293
11:05:34.188	0.024525
11:05:34.489	0.025909
11:05:34.889	0.022448
11:05:35.189	0.040449
11:05:35.488	0.042828
11:05:35.889	0.013865
11:05:36.189	0.026094
11:05:36.588	0.031028
11:05:36.888	0.022825
11:05:37.289	0.045785
11:05:37.589	0.037571
11:05:37.989	0.044432
11:05:38.288	0.047623
11:05:38.689	0.025363
11:05:38.989	0.011636
11:05:39.389	-0.025611
11:05:39.689	0.024547
11:05:40.089	0.032001
11:05:40.389	0.027461
11:05:40.689	0.010856
11:05:41.089	0.022630
11:05:41.389	0.020211
11:05:41.789	0.035905
11:05:42.089	0.022112
11:05:42.489	0.026941
11:05:42.789	0.030121
11:05:43.089	0.023269
11:05:43.488	0.022159
11:05:43.789	0.005546
11:05:44.189	0.005036
11:05:44.489	0.014569
11:05:44.789	0.009299
11:05:45.188	0.029453
11:05:45.489	0.010074
11:05:45.889	0.014405
11:05:46.189	0.027671
11:05:46.489	0.016715
11:05:46.888	0.017776
11:05:47.188	0.015978
11:05:47.489	0.013420
11:05:47.889	0.001989
11:05:48.188	0.004640
11:05:48.488	0.016246
11:05:48.888	0.017852
11:05:49.188	0.013523
11:05:49.490	0.015351
11:05:49.889	0.010218
11:05:50.189	0.014114
11:05:50.488	0.002625
11:05:50.888	0.011651
11:05:51.189	0.014493
11:05:51.488	0.004777
11:05:51.889	0.007661
11:05:52.188	0.007856
11:05:52.488	0.016576
11:05:52.889	0.016420
11:05:53.189	0.017338
11:05:53.489	0.013541
11:05:53.888	0.010401
11:05:54.188	0.019976
11:05:54.590	-0.004476
11:05:54.888	0.024325
11:05:55.288	0.006128
11:05:55.588	0.013750
11:05:55.988	0.014249
11:05:56.289	0.006403
11:05:56.588	0.004747
11:05:56.988	0.018418
11:05:57.288	0.024254
11:05:57.588	0.014858
11:05:57.989	-0.001722
11:05:58.288	0.008886
11:05:58.589	0.010895
11:05:58.988	0.021679
11:05:59.288	0.017404
11:05:59.689	0.003503
11:05:59.989	0.010138
11:06:00.289	0.012956
11:06:00.689	-0.002913
11:06:01.089	0.008977
11:06:01.388	0.002378
11:06:01.788	0.018608
11:06:02.088	0.016318
11:06:02.489	0.009410
11:06:02.788	0.006908
11:06:03.189	0.015939
11:06:03.488	0.011792
11:06:03.788	0.009353
11:06:04.190	0.012260
11:06:04.488	0.001715
11:06:04.889	0.014427
11:06:05.188	-0.002804
11:06:05.589	0.020491
11:06:05.989	0.004009
11:06:06.290	0.009290
11:06:06.688	0.002831
11:06:06.988	0.007597
11:06:07.389	0.004201
11:06:07.689	0.010225
11:06:08.088	0.031624
11:06:08.389	0.019600
11:06:08.788	0.022756
11:06:09.089	0.023436
11:06:09.488	0.017575
11:06:09.789	0.006599
11:06:10.189	0.010064
11:06:10.488	0.016665
11:06:10.789	0.009869
11:06:11.188	0.004085
11:06:11.489	0.017367
11:06:11.889	0.012133
11:06:12.189	0.011539
11:06:12.588	0.007155
11:06:12.888	0.013268
11:06:13.188	0.013227
11:06:13.588	0.022598
11:06:13.889	0.011949
11:06:14.289	0.018239
11:06:14.588	0.012514
11:06:14.989	0.012496
11:06:15.288	0.014122
11:06:15.688	0.011243
11:06:15.988	0.011749
11:06:16.389	0.017814
11:06:16.689	0.010311
11:06:16.989	0.011958
11:06:17.389	0.013708
11:06:17.689	0.025582
11:06:17.989	0.015645
11:06:18.389	0.009554
11:06:18.688	0.012499
11:06:19.089	0.002361
11:06:19.389	0.004770
11:06:19.689	0.013461
11:06:20.089	0.016783
11:06:20.389	0.018038
11:06:20.788	0.012684
11:06:21.089	0.018436
11:06:21.389	0.010884
11:06:21.788	0.015053
11:06:22.089	0.014386
11:06:22.489	-0.000964
11:06:22.789	0.021809
11:06:23.189	0.017234
11:06:23.488	0.016917
11:06:23.789	0.005298
11:06:24.189	0.011331
11:06:24.489	0.011394
11:06:24.788	0.026867
11:06:25.189	0.012042
11:06:25.489	0.009827
11:06:25.888	0.009061
11:06:26.188	-0.001558
11:06:26.489	0.003768
11:06:26.888	0.013860
11:06:27.189	0.021998
11:06:27.590	0.015845
11:06:27.889	0.019246
11:06:28.288	0.016949
11:06:28.589	0.014677
11:06:28.889	0.005291
11:06:29.289	0.021547
11:06:29.589	0.015103
11:06:29.989	0.010617
11:06:30.290	0.006668
11:06:30.688	0.009678
11:06:30.989	0.006220
11:06:31.389	0.019294
11:06:31.689	0.009844
11:06:31.989	0.011860
11:06:32.389	0.008534
11:06:32.689	-0.000810
11:06:32.989	0.005971
11:06:33.389	0.016807
11:06:33.689	0.007446
11:06:33.988	0.005635
11:06:34.389	0.013920
11:06:34.689	0.016614
11:06:35.089	0.007811
11:06:35.389	0.013505
11:06:35.789	0.015113
11:06:36.089	0.012167
11:06:36.489	0.016671
11:06:36.789	0.018503
11:06:37.189	0.008731
11:06:37.489	0.003955
11:06:37.789	0.006282
11:06:38.188	0.018354
11:06:38.489	0.017049
11:06:38.789	0.020315
11:06:39.189	0.019161
11:06:39.489	0.009097
11:06:39.889	0.008920
11:06:40.189	0.015282
11:06:40.588	0.021761
11:06:40.889	0.009427
11:06:41.189	0.011658
11:06:41.590	0.016710
11:06:41.888	0.010417
11:06:42.189	0.014881
11:06:42.589	0.015250
11:06:42.889	0.005160
11:06:43.289	0.013948
11:06:43.589	0.001438
11:06:43.989	0.031776
11:06:44.289	0.016098
11:06:44.689	0.009601
11:06:44.989	0.008563
11:06:45.390	0.012581
11:06:45.689	0.002563
11:06:46.088	0.013407
11:06:46.389	0.005243
11:06:46.689	0.017652
11:06:47.089	0.002957
11:06:47.388	-0.016804
11:06:47.789	0.002712
11:06:48.089	0.001433
11:06:48.489	0.015129
11:06:48.788	0.012609
11:06:49.189	0.008845
11:06:49.489	0.002332
11:06:49.889	0.024264
11:06:50.189	0.013008
11:06:50.588	0.012358
11:06:50.889	0.011475
11:06:51.289	0.009708
11:06:51.589	0.012334
11:06:51.889	0.006578
11:06:52.289	0.007981
11:06:52.590	0.012107
11:06:52.889	0.009908
11:06:53.289	0.002248
11:06:53.590	0.001612
11:06:53.889	-0.008597
11:06:54.289	-0.001796
11:06:54.589	0.001085
11:06:54.889	0.006834
11:06:55.289	0.005890
11:06:55.589	0.011026
11:06:55.989	0.018213
11:06:56.289	0.040449
11:06:56.689	0.011084
11:06:56.989	0.013119
11:06:57.389	0.008905
11:06:57.689	0.004706
11:06:58.089	0.021810
11:06:58.389	0.016769
11:06:58.789	0.015425
11:06:59.089	-0.000317
11:06:59.489	0.011561
11:06:59.790	0.011145
11:07:00.090	0.009051
11:07:00.489	0.000530
11:07:00.789	0.005991
11:07:01.089	0.003176
11:07:01.489	0.005758
11:07:01.790	0.006812
11:07:02.089	0.013710
11:07:02.489	0.009723
11:07:02.789	0.012926
11:07:03.189	0.013371
11:07:03.489	0.018956
11:07:03.889	0.014553
11:07:04.189	0.010932
11:07:04.589	0.016966
11:07:04.889	0.014672
11:07:05.290	0.014495
11:07:05.589	0.020653
11:07:05.889	0.024482
11:07:06.289	0.013962
11:07:06.589	0.016173
11:07:06.989	0.004913
11:07:07.289	0.011009
11:07:07.689	0.027767
11:07:07.990	0.012344
11:07:08.389	0.018712
11:07:08.689	0.007698
11:07:09.089	0.003916
11:07:09.389	0.006897
11:07:09.789	0.015615
11:07:10.089	0.019945
11:07:10.490	0.022604
11:07:10.789	0.020031
11:07:11.189	0.016210
11:07:11.489	0.020934
11:07:11.889	0.006833
11:07:12.189	0.023813
11:07:12.589	0.032651
11:07:12.889	0.013719
11:07:13.290	0.015611
11:07:13.589	0.013384
11:07:13.989	0.015392
11:07:14.289	0.020564
11:07:14.689	0.008425
11:07:14.989	0.011837
11:07:15.289	0.008613
11:07:15.689	0.017439
11:07:15.989	0.014066
11:07:16.390	0.014488
11:07:16.689	0.012706
11:07:17.090	0.014161
11:07:17.389	0.015028
11:07:17.789	0.015677
11:07:18.089	0.013939
11:07:18.489	0.012211
11:07:18.790	0.020639
11:07:19.190	0.012590
11:07:19.490	0.011214
11:07:19.890	0.005574
11:07:20.189	0.000855
11:07:20.490	0.007672
11:07:20.890	0.016899
11:07:21.189	0.022305
11:07:21.589	0.003214
11:07:21.889	0.008486
11:07:22.290	0.017281
11:07:22.589	0.012544
11:07:22.989	0.019867
11:07:23.289	0.015486
11:07:23.689	0.010422
11:07:23.989	0.012545
11:07:24.389	0.014279
11:07:24.689	0.009921
11:07:25.089	0.011914
11:07:25.389	0.000376
11:07:25.789	0.005600
11:07:26.089	0.003737
11:07:26.490	0.013249
11:07:26.790	0.007681
11:07:27.090	-0.000746
11:07:27.489	0.015363
11:07:27.789	0.015603
11:07:28.189	0.014262
11:07:28.489	0.022656
11:07:28.889	0.015288
11:07:29.189	0.012633
11:07:29.589	0.007423
11:07:29.889	0.000994
11:07:30.289	0.005270
11:07:30.589	0.011169
11:07:30.990	0.013476
11:07:31.289	0.002856
11:07:31.690	0.015352
11:07:31.990	0.013523
11:07:32.389	0.004693
11:07:32.790	0.020281
11:07:33.089	0.008986
11:07:33.490	0.007710
11:07:33.789	0.011238
11:07:34.190	0.013656
11:07:34.489	0.010178
11:07:34.889	0.006853
11:07:35.189	0.012994
11:07:35.589	0.019833
11:07:35.890	0.018084
11:07:36.190	0.013621
11:07:36.590	0.018260
11:07:36.889	0.024297
11:07:37.290	0.012964
11:07:37.590	0.013693
11:07:37.990	0.001514
11:07:38.289	-0.006371
11:07:38.690	0.010122
11:07:38.989	0.001995
11:07:39.390	-0.000852
11:07:39.690	0.003916
11:07:40.090	0.022089
11:07:40.389	0.017867
11:07:40.790	0.017525
11:07:41.090	0.022491
11:07:41.390	0.009612
11:07:41.790	0.010346
11:07:42.090	0.009635
11:07:42.490	0.023581
11:07:42.789	0.002104
11:07:43.189	-0.003185
11:07:43.489	0.018301
11:07:43.889	0.016181
11:07:44.189	0.014308
11:07:44.589	0.014765
11:07:44.889	0.008702
11:07:45.189	0.007250
11:07:45.590	0.008809
11:07:45.889	0.001810
11:07:46.289	0.021980
11:07:46.589	0.032347
11:07:46.990	0.016832
11:07:47.289	0.010851
11:07:47.690	0.013606
11:07:47.989	0.007538
11:07:48.389	0.012687
11:07:48.690	0.006615
11:07:48.990	0.008251
11:07:49.390	0.010907
11:07:49.690	0.009307
11:07:50.090	0.017781
11:07:50.389	0.009078
11:07:50.790	0.010904
11:07:51.089	0.012554
11:07:51.490	0.020048
11:07:51.789	0.008504
11:07:52.190	0.005672
11:07:52.489	0.014539
11:07:52.890	0.008866
11:07:53.189	0.009974
11:07:53.589	0.011017
11:07:53.889	0.016177
11:07:54.290	0.011375
11:07:54.589	0.015097
11:07:54.989	0.015019
11:07:55.289	0.019874
11:07:55.690	0.005963
11:07:55.989	0.019083
11:07:56.390	0.012898
11:07:56.690	0.010607
11:07:57.089	0.006502
11:07:57.389	0.008030
11:07:57.690	-0.000405
11:07:58.090	0.011093
11:07:58.390	0.017887
11:07:58.789	-0.000532
11:07:59.089	0.007046
11:07:59.389	0.014206
11:07:59.789	0.015343
11:08:00.090	0.002369
11:08:00.490	0.009852
11:08:00.790	0.009218
11:08:01.190	0.007809
11:08:01.489	0.010396
11:08:01.889	0.022211
11:08:02.190	0.017896
11:08:02.589	0.015747
11:08:02.890	0.013151
11:08:03.290	0.024068
11:08:03.589	0.016727
11:08:03.989	0.009496
11:08:04.289	0.005495
11:08:04.589	0.004970
11:08:04.990	0.007715
11:08:05.289	0.018161
11:08:05.690	0.019335
11:08:05.990	0.024375
11:08:06.389	0.015026
11:08:06.689	0.018653
11:08:07.089	0.002007
11:08:07.389	0.008609
11:08:07.789	0.019140
11:08:08.089	0.022220
11:08:08.389	0.006130
11:08:08.790	0.018931
11:08:09.090	0.009882
11:08:09.489	0.008506
11:08:09.790	0.006762
11:08:10.190	0.018067
11:08:10.489	0.019756
11:08:10.889	0.017387
11:08:11.189	0.008363
11:08:11.589	0.017750
11:08:11.889	0.015605
11:08:12.290	0.012306
11:08:12.589	0.008993
11:08:12.990	0.017975
11:08:13.290	0.005903
11:08:13.691	0.003230
11:08:13.989	0.013484
11:08:14.389	0.017610
11:08:14.689	0.007325
11:08:15.089	0.001882
11:08:15.389	0.012026
11:08:15.690	0.008125
11:08:16.089	0.007068
11:08:16.389	0.009692
11:08:16.790	0.011781
11:08:17.090	0.022010
11:08:17.490	0.011013
11:08:17.789	0.017448
11:08:18.190	0.010679
11:08:18.489	0.013358
11:08:18.889	0.006815
11:08:19.189	0.010170
11:08:19.589	0.015053
11:08:19.889	0.010751
11:08:20.290	0.018609
11:08:20.589	0.014956
11:08:20.989	0.006321
11:08:21.289	0.012288
11:08:21.690	0.004668
11:08:21.989	0.021051
11:08:22.390	0.026198
11:08:22.689	0.023731
11:08:23.089	0.017843
11:08:23.390	0.017770
11:08:23.789	0.009850
11:08:24.090	0.016509
11:08:24.390	0.015523
11:08:24.789	0.011462
11:08:25.090	0.010297
11:08:25.489	0.005773
11:08:25.789	0.012097
11:08:26.190	0.008450
11:08:26.490	0.009882
11:08:26.890	0.014080
11:08:27.189	0.017726
11:08:27.589	0.009310
11:08:27.890	0.006544
11:08:28.290	0.016575
11:08:28.590	0.011834
11:08:28.989	0.009415
11:08:29.289	0.014168
11:08:29.689	0.012346
11:08:29.990	0.011731
11:08:30.390	0.008840
11:08:30.690	0.006441
11:08:31.089	0.006367
11:08:31.389	0.000846
11:08:31.789	0.001973
11:08:32.090	0.016882
11:08:32.490	0.001081
11:08:32.789	0.009773
11:08:33.190	0.016468
11:08:33.491	0.014146
11:08:33.890	0.018555
11:08:34.189	0.026979
11:08:34.589	0.026057
11:08:34.890	0.022456
11:08:35.290	0.001402
11:08:35.589	0.003368
11:08:35.890	0.003136
11:08:36.290	0.026757
11:08:36.589	0.019047
11:08:36.990	0.013928
11:08:37.290	0.005284
11:08:37.689	0.009180
11:08:38.089	0.028191
11:08:38.390	0.019829
11:08:38.789	0.015560
11:08:39.089	0.013721
11:08:39.489	0.014211
11:08:39.790	0.015342
11:08:40.190	0.016490
11:08:40.489	0.018889
11:08:40.889	0.013354
11:08:41.189	0.005307
11:08:41.589	0.021223
11:08:41.889	0.022459
11:08:42.289	0.010923
11:08:42.590	0.006639
11:08:42.889	0.008710
11:08:43.289	0.015941
11:08:43.589	0.016803
11:08:43.990	0.021837
11:08:44.290	-0.001757
11:08:44.689	0.016055
11:08:44.989	0.029835
11:08:45.389	0.012251
11:08:45.690	0.014100
11:08:46.089	0.016831
11:08:46.390	0.019895
11:08:46.789	0.015084
11:08:47.090	0.015452
11:08:47.490	0.006503
11:08:47.789	0.010038
11:08:48.190	0.017890
11:08:48.490	0.007297
11:08:48.890	0.019223
11:08:49.190	0.015252
11:08:49.590	0.010398
11:08:49.890	0.001805
11:08:50.290	0.013374
11:08:50.590	0.007652
11:08:50.990	0.013655
11:08:51.290	0.009131
11:08:51.689	0.009257
11:08:51.989	0.011603
11:08:52.389	0.009985
11:08:52.690	0.017693
11:08:53.090	0.018911
11:08:53.390	0.008258
11:08:53.790	0.018720
11:08:54.089	0.022181
11:08:54.489	0.020718
11:08:54.791	0.017714
11:08:55.190	0.025969
11:08:55.489	0.017440
11:08:55.890	0.008308
11:08:56.190	0.011626
11:08:56.589	0.008738
11:08:56.890	0.008320
11:08:57.290	0.012645
11:08:57.590	0.001308
11:08:57.989	0.000574
11:08:58.289	0.009806
11:08:58.689	0.014551
11:08:58.990	-0.001672
11:08:59.389	0.005387
11:08:59.690	0.000961
11:09:00.089	-0.005497
11:09:00.390	0.016073
11:09:00.790	0.009049
11:09:01.089	0.019947
11:09:01.489	0.019604
11:09:01.790	0.008927
11:09:02.190	0.016177
11:09:02.489	0.007717
11:09:02.890	-0.002247
11:09:03.190	0.000037
11:09:03.589	0.012652
11:09:03.890	0.006426
11:09:04.289	0.001749
11:09:04.590	0.002972
11:09:04.891	0.021435
11:09:05.289	0.020375
11:09:05.590	0.019466
11:09:05.989	0.008186
11:09:06.289	0.004779
11:09:06.689	0.013544
11:09:06.989	0.013086
11:09:07.390	0.017203
11:09:07.690	0.018027
11:09:08.090	0.013392
11:09:08.391	0.018008
11:09:08.789	0.013800
11:09:09.089	0.018557
11:09:09.489	0.004525
11:09:09.789	0.013303
11:09:10.190	0.019693
11:09:10.491	0.020178
11:09:10.890	0.010557
11:09:11.190	0.006361
11:09:11.590	0.013072
11:09:11.890	0.008808
11:09:12.289	0.009846
11:09:12.590	0.023723
11:09:12.990	0.008919
11:09:13.289	0.011089
11:09:13.689	0.014884
11:09:13.990	0.014511
11:09:14.390	0.014652
11:09:14.689	0.009961
11:09:14.989	0.010805
11:09:15.389	0.012271
11:09:15.690	0.017358
11:09:16.089	0.007665
11:09:16.390	0.009306
11:09:16.690	0.009265
11:09:17.089	0.013673
11:09:17.390	0.010550
11:09:17.789	0.011756
11:09:18.090	0.012183
11:09:18.490	0.010856
11:09:18.789	0.010316
11:09:19.090	0.002608
11:09:19.490	0.011680
11:09:19.789	0.006161
11:09:20.189	0.011692
11:09:20.490	0.003942
11:09:20.890	0.009792
11:09:21.190	0.015738
11:09:21.590	0.024123
11:09:21.889	0.013553
11:09:22.190	0.010626
11:09:22.589	0.020625
11:09:22.890	0.007201
11:09:23.290	0.012061
11:09:23.591	0.013537
11:09:23.890	0.006237
11:09:24.290	0.048709
11:09:24.589	0.012522
11:09:24.990	0.018610
11:09:25.290	0.016510
11:09:25.689	-0.003972
11:09:25.990	0.014645
11:09:26.390	0.008184
11:09:26.689	0.011096
11:09:27.090	0.007206
11:09:27.390	0.007851
11:09:27.789	0.004817
11:09:28.091	0.017988
11:09:28.489	0.003884
11:09:28.789	-0.001595
11:09:29.189	0.018698
11:09:29.489	0.018340
11:09:29.890	-0.001019
11:09:30.190	0.012879
11:09:30.590	0.006473
11:09:30.889	0.006425
11:09:31.190	0.015462
11:09:31.590	0.027538
11:09:31.889	0.013974
11:09:32.290	0.017899
11:09:32.589	0.021196
11:09:32.891	0.013239
11:09:33.289	-0.002398
11:09:33.590	-0.003512
11:09:33.989	0.010204
11:09:34.290	0.015406
11:09:34.689	0.009719
11:09:34.990	0.001767
11:09:35.390	0.009531
11:09:35.690	0.017343
11:09:36.090	0.005110
11:09:36.390	0.010119
11:09:36.790	0.017411
11:09:37.090	0.011718
11:09:37.489	0.014397
11:09:37.790	0.012994
11:09:38.089	0.014102
11:09:38.490	0.010529
11:09:38.789	0.022609
11:09:39.190	0.007683
11:09:39.490	0.005449
11:09:39.889	0.014163
11:09:40.190	0.019181
11:09:40.589	0.011799
11:09:40.889	0.011323
11:09:41.290	0.012486
11:09:41.590	0.021630
11:09:41.990	0.022894
11:09:42.290	0.015387
11:09:42.690	0.017734
11:09:42.990	0.015015
11:09:43.291	0.015068
11:09:43.690	0.011218
11:09:43.989	0.007889
11:09:44.390	0.010376
11:09:44.690	0.003703
11:09:45.090	0.010400
11:09:45.389	0.025663
11:09:45.789	0.013700
11:09:46.090	0.008582
11:09:46.490	0.008132
11:09:46.790	0.004248
11:09:47.190	0.012637
11:09:47.489	0.022503
11:09:47.889	0.022576
11:09:48.190	0.017033
11:09:48.590	0.013212
11:09:48.890	0.020348
11:09:49.190	0.011155
11:09:49.589	0.008503
11:09:49.890	0.009221
11:09:50.290	0.014864
11:09:50.590	0.014283
11:09:50.990	0.010827
11:09:51.290	0.017106
11:09:51.689	0.020549
11:09:51.990	0.021236
11:09:52.390	0.014502
11:09:52.690	0.009714
11:09:53.089	0.042273
11:09:53.389	0.021653
11:09:53.790	0.020270
11:09:54.090	0.019132
11:09:54.390	0.018832
11:09:54.791	0.003061
11:09:55.089	0.013338
11:09:55.490	0.017992
11:09:55.790	0.022063
11:09:56.190	0.002451
11:09:56.490	0.004475
11:09:56.891	0.017611
11:09:57.190	0.014117
11:09:57.590	0.014715
11:09:57.890	0.011790
11:09:58.290	0.011985
11:09:58.590	0.018194
11:09:58.990	0.014489
11:09:59.289	0.017320
11:09:59.690	0.027571
11:09:59.990	0.015290
11:10:00.290	0.014761
11:10:00.690	0.007572
11:10:00.990	0.037987
11:10:01.290	0.026848
11:10:01.690	0.021079
11:10:01.990	0.012714
11:10:02.390	0.003968
11:10:02.690	0.027186
11:10:03.090	0.011685
11:10:03.390	0.013222
11:10:03.790	0.017258
11:10:04.090	0.020632
11:10:04.490	0.042981
11:10:04.790	0.037580
11:10:05.090	0.024487
11:10:05.490	0.029159
11:10:05.790	0.039225
11:10:06.190	0.051046
11:10:06.490	0.039417
11:10:06.890	0.049517
11:10:07.190	0.043846
11:10:07.590	0.041894
11:10:07.890	0.063221
11:10:08.290	0.068598
11:10:08.590	0.061840
11:10:08.890	0.057580
11:10:09.290	0.082941
11:10:09.690	0.092897
11:10:09.990	0.074879
11:10:10.290	0.064967
11:10:10.690	0.073545
11:10:10.990	0.078756
11:10:11.390	0.070902
11:10:11.690	0.057590
11:10:12.090	0.043672
11:10:12.390	0.050214
11:10:12.790	0.057240
11:10:13.090	0.056189
11:10:13.490	0.034949
11:10:13.791	0.038553
11:10:14.190	0.030178
11:10:14.490	0.021325
11:10:14.890	0.019180
11:10:15.190	0.027948
11:10:15.490	0.025931
11:10:15.890	0.028066
11:10:16.190	0.015735
11:10:16.590	0.018079
11:10:16.890	0.014838
11:10:17.190	0.028267
11:10:17.591	0.034230
11:10:17.890	0.014864
11:10:18.290	0.026258
11:10:18.590	0.022749
11:10:18.990	0.019802
11:10:19.290	0.019789
11:10:19.691	0.003915
11:10:19.990	0.012476
11:10:20.390	0.010161
11:10:20.691	0.007638
11:10:21.090	0.009222
11:10:21.390	0.005188
11:10:21.690	0.007316
11:10:22.090	0.015385
11:10:22.390	0.017933
11:10:22.790	0.007592
11:10:23.090	0.009288
11:10:23.390	0.014004
11:10:23.790	0.021896
11:10:24.090	0.012876
11:10:24.390	0.009893
11:10:24.790	0.014315
11:10:25.090	0.013220
11:10:25.490	0.010287
11:10:25.790	0.015055
11:10:26.190	0.007176
11:10:26.490	0.008774
11:10:26.890	0.009749
11:10:27.190	0.026912
11:10:27.490	0.021887
11:10:27.891	0.009362
11:10:28.190	0.019696
11:10:28.490	0.013680
11:10:28.890	-0.002259
11:10:29.190	0.013681
11:10:29.490	0.019092
11:10:29.891	0.010447
11:10:30.191	0.016790
11:10:30.491	0.017956
11:10:30.890	0.007463
11:10:31.190	0.009823
11:10:31.490	0.014226
11:10:31.891	0.018298
11:10:32.190	0.010813
11:10:32.591	0.004342
11:10:32.891	0.016468
11:10:33.290	0.013421
11:10:33.591	0.007006
11:10:33.990	0.011058
11:10:34.290	0.002965
11:10:34.691	0.004902
11:10:34.990	0.008772
11:10:35.290	0.019214
11:10:35.690	0.001967
11:10:35.991	0.004979
11:10:36.391	0.014538
11:10:36.691	0.003034
11:10:37.090	0.024682
11:10:37.390	0.023362
11:10:37.791	0.011526
11:10:38.090	0.023334
11:10:38.390	0.009957
11:10:38.790	0.000116
11:10:39.090	0.016256
11:10:39.490	0.004719
11:10:39.891	0.005847
11:10:40.191	0.014026
11:10:40.491	0.015084
11:10:40.891	0.023126
11:10:41.191	0.015091
11:10:41.491	0.022638
11:10:41.891	0.005160
11:10:42.191	0.015403
11:10:42.491	0.015847
11:10:42.890	0.017043
11:10:43.191	0.017104
11:10:43.591	0.006269
11:10:43.891	0.009359
11:10:44.291	0.015100
11:10:44.591	0.011253
11:10:44.990	0.005361
11:10:45.291	0.000934
11:10:45.691	0.009560
11:10:45.990	0.013435
11:10:46.390	-0.002956
11:10:46.690	-0.000495
11:10:47.090	0.017693
11:10:47.390	0.015324
11:10:47.690	0.013318
11:10:48.091	0.014727
11:10:48.390	0.017182
11:10:48.791	0.021198
11:10:49.091	0.003764
11:10:49.390	0.006632
11:10:49.791	0.005396
11:10:50.090	0.009926
11:10:50.491	0.014855
11:10:50.791	0.010346
11:10:51.191	0.015124
11:10:51.491	0.013109
11:10:51.890	0.015851
11:10:52.191	0.015950
11:10:52.490	0.011570
11:10:52.891	0.008503
11:10:53.191	0.009666
11:10:53.491	0.012916
11:10:53.890	0.011530
11:10:54.190	0.009528
11:10:54.591	0.005670
11:10:54.890	0.023055
11:10:55.291	0.015077
11:10:55.590	0.014989
11:10:55.991	0.006122
11:10:56.290	0.002095
11:10:56.590	0.010828
11:10:56.991	0.015837
11:10:57.291	0.015559
11:10:57.690	0.011869
11:10:57.991	0.011740
11:10:58.391	0.009148
11:10:58.691	0.011208
11:10:59.090	0.008488
11:10:59.390	0.014046
11:10:59.791	0.013010
11:11:00.091	0.004156
11:11:00.490	0.007789
11:11:00.791	0.014223
11:11:01.191	0.007188
11:11:01.490	0.003580
11:11:01.791	0.013364
11:11:02.191	0.012468
11:11:02.491	0.020495
11:11:02.890	0.014684
11:11:03.191	0.017320
11:11:03.491	0.025359
11:11:03.890	0.016123
11:11:04.191	0.019177
11:11:04.590	0.005534
11:11:04.892	0.013538
11:11:05.291	0.021723
11:11:05.591	0.016707
11:11:54.691	0.017640
11:11:55.591	-0.001483
11:11:55.891	0.037756
11:11:56.291	0.020542
11:11:56.591	0.008406
11:11:56.990	0.029086
11:11:57.290	0.040471
11:11:57.691	0.038862
11:11:57.991	0.022681
11:11:58.391	0.002060
11:11:58.690	0.022666
11:11:59.091	0.015195
11:11:59.391	0.002012
11:11:59.691	0.003133
11:12:00.090	0.022121
11:12:00.391	0.016956
11:12:00.691	-0.011972
11:12:01.090	-0.006334
11:12:01.391	0.029227
11:12:01.691	-0.034773
11:12:02.091	0.046218
11:12:02.391	0.039375
11:12:02.791	0.022450
11:12:03.091	0.014685
11:12:03.491	0.039787
11:12:03.790	0.017967
11:12:04.191	0.024553
11:12:04.491	0.035791
11:12:04.890	0.009282
11:12:05.190	0.013183
11:12:05.591	0.017804
11:12:05.892	0.017421
11:12:06.291	-0.010711
11:12:06.591	0.013025
11:12:06.891	0.021017
11:12:07.291	0.010405
11:12:07.591	0.017079
11:12:07.991	0.022401
11:12:08.291	0.025432
11:12:08.691	0.009319
11:12:08.991	0.009218
11:12:09.391	0.021380
11:12:09.691	0.015092
11:12:10.091	-0.011077
11:12:10.391	0.002657
11:12:10.791	0.020809
11:12:11.091	0.011502
11:12:11.491	-0.015368
11:12:11.791	0.035882
11:12:12.191	0.040302
11:12:12.490	0.025516
11:12:12.891	0.019984
11:12:13.191	0.017754
11:12:13.591	0.000566
11:12:13.891	0.010174
11:12:14.291	0.022422
11:12:14.591	0.022789
11:12:14.890	0.020658
11:12:15.291	0.014504
11:12:15.591	0.013517
11:12:15.990	0.025093
11:12:16.291	0.010957
11:12:16.691	0.021647
11:12:16.991	0.009262
11:12:17.391	0.003005
11:12:17.691	0.015968
11:12:18.091	0.033092
11:12:18.391	0.023487
11:12:18.791	0.009049
11:12:19.090	0.013802
11:12:19.391	0.019134
11:12:19.791	0.006556
11:12:20.091	0.010777
11:12:20.491	0.015442
11:12:20.790	0.017315
11:12:21.092	0.033623
11:12:21.491	0.018877
11:12:21.791	0.012564
11:12:22.091	0.018729
11:12:22.491	0.024774
11:12:22.791	-0.013923
11:12:23.190	0.020150
11:12:23.491	0.015947
11:12:23.891	-0.039330
11:12:24.192	0.045858
11:12:24.591	0.027573
11:12:24.890	0.024312
11:12:25.291	0.009645
11:12:25.591	-0.006838
11:12:25.991	0.014047
11:12:26.290	0.008732
11:12:26.691	-0.045515
11:12:26.991	-0.032523
11:12:27.390	-0.002616
11:12:27.691	0.012079
11:12:28.091	0.050694
11:12:28.390	0.039148
11:12:28.791	0.020823
11:12:29.090	0.006579
11:12:29.491	0.011952
11:12:29.790	0.016980
11:12:30.090	0.002647
11:12:30.491	0.010989
11:12:30.791	0.009400
11:12:31.191	0.016452
11:12:31.490	0.015628
11:12:31.891	0.035180
11:12:32.191	0.016253
11:12:32.590	-0.001150
11:12:32.891	-0.026432
11:12:33.291	-0.032495
11:12:33.591	-0.014990
11:12:33.891	-0.009011
11:12:34.290	0.007332
11:12:34.591	0.019057
11:12:34.891	0.051495
11:12:35.291	0.039183
11:12:35.590	0.017160
11:12:35.891	0.013071
11:12:36.290	0.000772
11:12:36.591	0.000574
11:12:36.991	0.018245
11:12:37.291	0.009842
11:12:37.691	-0.012726
11:12:37.991	0.008623
11:12:38.392	0.002332
11:12:38.690	-0.011577
11:12:38.991	-0.058870
11:12:39.391	-0.022267
11:12:39.791	-0.005745
11:12:40.091	-0.016313
11:12:40.491	0.033053
11:12:40.791	0.027135
11:12:41.191	0.033778
11:12:41.490	0.050346
11:12:41.890	0.045179
11:12:42.191	-0.011738
11:12:42.591	0.001013
11:12:42.891	0.020716
11:12:43.191	0.064666
11:12:43.591	0.026705
11:12:43.891	-0.026701
11:12:44.190	0.044080
11:12:44.591	0.023437
11:12:44.891	0.019558
11:12:45.290	0.021842
11:12:45.590	0.015997
11:12:45.991	0.027288
11:12:46.291	0.016499
11:12:46.691	0.014934
11:12:46.992	0.023001
11:12:47.391	0.040328
11:12:47.691	0.017797
11:12:48.091	0.018421
11:12:48.391	0.026950
11:12:48.791	0.020605
11:12:49.091	0.019621
11:12:49.491	0.017081
11:12:49.791	0.020353
11:12:50.091	0.013568
11:12:50.492	0.023050
11:12:50.791	0.021290
11:12:51.191	0.023467
11:12:51.491	0.020157
11:12:51.890	0.019215
11:12:52.191	0.022417
11:12:52.591	0.013726
11:12:52.891	0.009205
11:12:53.191	0.018552
11:12:53.591	0.016932
11:12:53.891	0.016658
11:12:54.291	0.060202
11:12:54.591	0.036556
11:12:54.991	0.007121
11:12:55.291	0.002880
11:12:55.691	0.019993
11:12:55.991	0.007013
11:12:56.391	0.038187
11:12:56.691	0.041546
11:12:57.091	0.015632
11:12:57.391	0.003519
11:12:57.791	0.023093
11:12:58.091	0.001126
11:12:58.491	0.009846
11:12:58.791	0.024190
11:12:59.091	0.013502
11:12:59.491	0.007933
11:12:59.791	0.016658