Chart Recorder Data File Fri, Sep 20, 2024 10:35 AM
Time (s)	CH1 (V)  
10:30:40.178	0.821774
10:30:40.977	0.847464
10:30:41.277	0.884403
10:30:41.678	0.866646
10:30:41.977	0.846993
10:30:42.377	0.848010
10:30:42.678	0.856554
10:30:43.077	0.846575
10:30:43.378	0.885256
10:30:43.778	0.897059
10:30:44.077	0.875131
10:30:44.477	0.842323
10:30:44.777	0.851796
10:30:45.177	0.865807
10:30:45.477	0.862569
10:30:45.777	0.856648
10:30:46.177	0.841846
10:30:46.477	0.860077
10:30:46.877	0.833178
10:30:47.178	0.843619
10:30:47.577	0.858457
10:30:47.877	0.857578
10:30:48.277	0.871602
10:30:48.578	0.864488
10:30:48.877	0.841551
10:30:49.277	0.837515
10:30:49.577	0.852137
10:30:49.977	0.865603
10:30:50.277	0.856070
10:30:50.677	0.858156
10:30:50.977	0.848373
10:30:51.378	0.867566
10:30:51.678	0.865543
10:30:52.077	0.867415
10:30:52.377	0.839622
10:30:52.777	0.823320
10:30:53.077	0.827706
10:30:53.477	0.831521
10:30:53.777	0.846210
10:30:54.077	0.866104
10:30:54.477	0.870757
10:30:54.777	0.887787
10:30:55.077	0.888866
10:30:55.478	0.836419
10:30:55.778	0.831751
10:30:56.077	0.822839
10:30:56.477	0.836179
10:30:56.777	0.863253
10:30:57.178	0.863276
10:30:57.477	0.871152
10:30:57.877	0.865053
10:30:58.178	0.866156
10:30:58.578	0.891013
10:30:58.977	0.865200
10:30:59.277	0.869350
10:30:59.577	0.873594
10:30:59.977	0.914943
10:31:00.277	0.893036
10:31:00.677	0.905090
10:31:00.977	0.905168
10:31:01.278	0.892557
10:31:01.677	0.889061
10:31:01.977	0.913248
10:31:02.378	0.924141
10:31:02.677	0.909775
10:31:02.977	0.921974
10:31:03.378	0.939221
10:31:03.678	0.932728
10:31:04.077	0.917480
10:31:04.377	0.933059
10:31:04.777	0.921470
10:31:05.077	0.938105
10:31:05.378	0.944113
10:31:05.777	0.951053
10:31:06.077	0.956289
10:31:06.477	0.969075
10:31:06.778	0.952955
10:31:07.078	0.911365
10:31:07.478	0.899953
10:31:07.777	0.884173
10:31:08.077	0.895750
10:31:08.478	0.908670
10:31:08.777	0.891195
10:31:09.077	0.892375
10:31:09.478	0.874316
10:31:09.777	0.899757
10:31:10.178	0.934036
10:31:10.477	0.937955
10:31:10.878	0.921586
10:31:11.178	0.898859
10:31:11.578	0.893585
10:31:11.878	0.889976
10:31:12.177	0.893085
10:31:12.578	0.925612
10:31:12.877	0.919964
10:31:13.277	0.907098
10:31:13.577	0.898536
10:31:13.977	0.880223
10:31:14.277	0.873132
10:31:14.677	0.897772
10:31:14.978	0.924542
10:31:15.279	0.894825
10:31:15.677	0.893002
10:31:15.977	0.896484
10:31:16.277	0.897836
10:31:16.678	0.895542
10:31:16.978	0.915098
10:31:17.277	0.913920
10:31:17.677	0.902305
10:31:17.977	0.892620
10:31:18.377	0.892556
10:31:18.677	0.859165
10:31:18.977	0.848730
10:31:19.378	0.837843
10:31:19.677	0.860573
10:31:20.078	0.856038
10:31:20.378	0.890342
10:31:20.778	0.888424
10:31:21.077	0.907531
10:31:21.377	0.890137
10:31:21.777	0.879927
10:31:22.078	0.887727
10:31:22.478	0.884829
10:31:22.778	0.899240
10:31:23.078	0.899006
10:31:23.478	0.902876
10:31:23.778	0.886497
10:31:24.178	0.877402
10:31:24.478	0.876413
10:31:24.878	0.895136
10:31:25.179	0.855627
10:31:25.578	0.882850
10:31:25.877	0.884297
10:31:26.177	0.879906
10:31:26.578	0.867770
10:31:26.878	0.874209
10:31:27.278	0.856952
10:31:27.578	0.867843
10:31:27.977	0.890919
10:31:28.277	0.887374
10:31:28.677	0.879498
10:31:28.978	0.891724
10:31:29.277	0.891546
10:31:29.677	0.904814
10:31:29.978	0.897344
10:31:30.278	0.858851
10:31:30.677	0.849112
10:31:30.978	0.872132
10:31:31.378	0.887959
10:31:31.678	0.887282
10:31:31.978	0.866865
10:31:32.378	0.855926
10:31:32.677	0.878146
10:31:33.077	0.869512
10:31:33.378	0.883833
10:31:33.777	0.892234
10:31:34.078	0.897495
10:31:34.377	0.898678
10:31:34.778	0.894354
10:31:35.078	0.916247
10:31:35.378	0.928054
10:31:35.778	0.932999
10:31:36.078	0.939294
10:31:36.377	0.946309
10:31:36.777	0.962816
10:31:37.078	0.974737
10:31:37.377	0.933029
10:31:37.778	0.920367
10:31:38.078	0.912799
10:31:38.377	0.954364
10:31:38.778	0.968547
10:31:39.077	0.965130
10:31:39.477	0.977275
10:31:39.778	0.994825
10:31:40.077	0.975373
10:31:40.478	1.009585
10:31:40.778	1.057103
10:31:41.178	1.129849
10:31:41.477	1.150725
10:31:41.877	1.185944
10:31:42.177	1.269756
10:31:42.478	1.340915
10:31:42.877	1.468878
10:31:43.177	1.585209
10:31:43.478	1.645948
10:31:43.878	1.812442
10:31:44.178	1.947475
10:31:44.578	2.129916
10:31:44.878	2.196939
10:31:45.277	2.484592
10:31:46.577	2.506314
10:31:46.877	2.488702
10:31:47.277	2.425590
10:31:47.577	2.354997
10:31:47.977	2.242805
10:31:48.278	2.154304
10:31:48.678	2.064552
10:31:48.977	2.022889
10:31:49.377	1.704744
10:31:50.678	1.641261
10:31:50.978	1.621192
10:31:51.277	1.568916
10:31:51.678	1.506413
10:31:51.977	1.444744
10:31:52.278	1.439787
10:31:52.678	1.439065
10:31:52.978	1.426082
10:31:53.278	1.438604
10:31:53.677	1.451005
10:31:53.978	1.442989
10:31:54.277	1.442773
10:31:54.678	1.449597
10:31:54.978	1.453790
10:31:55.278	1.443919
10:31:55.678	1.441879
10:31:55.977	1.413310
10:31:56.278	1.414304
10:31:56.677	1.419771
10:31:56.978	1.424063
10:31:57.378	1.433732
10:31:57.677	1.435359
10:31:58.078	1.458458
10:31:58.378	1.463249
10:31:58.777	1.450103
10:31:59.078	1.467033
10:31:59.478	1.473322
10:31:59.778	1.483460
10:32:00.077	1.523637
10:32:00.478	1.520865
10:32:00.777	1.515365
10:32:01.177	1.492941
10:32:01.478	1.425183
10:32:01.877	1.382425
10:32:02.178	1.376709
10:32:02.578	1.332206
10:32:02.878	1.285576
10:32:03.277	1.249380
10:32:03.578	1.228445
10:32:03.978	1.163303
10:32:04.278	1.140429
10:32:04.677	1.090490
10:32:04.977	1.079682
10:32:05.278	1.076735
10:32:05.678	1.053034
10:32:05.977	1.044062
10:32:06.278	1.024352
10:32:06.678	1.011893
10:32:06.978	0.989362
10:32:07.278	0.947933
10:32:07.678	0.909398
10:32:07.977	0.909142
10:32:08.378	0.889392
10:32:08.678	0.881669
10:32:09.078	0.878500
10:32:09.378	0.879303
10:32:09.777	0.858857
10:32:10.078	0.857649
10:32:10.377	0.865782
10:32:10.777	0.858153
10:32:11.078	0.860713
10:32:11.477	0.868607
10:32:11.777	0.866167
10:32:12.078	0.864549
10:32:12.478	0.880088
10:32:12.777	0.870589
10:32:13.178	0.865259
10:32:13.478	0.866042
10:32:13.778	0.831487
10:32:14.178	0.818768
10:32:14.478	0.827926
10:32:14.877	0.832860
10:32:15.178	0.825456
10:32:15.578	0.797868
10:32:15.877	0.838490
10:32:16.278	0.850485
10:32:16.578	0.842780
10:32:16.977	0.828713
10:32:17.278	0.837428
10:32:17.578	0.849055
10:32:17.977	0.838905
10:32:18.278	0.828624
10:32:18.678	0.828993
10:32:18.978	0.830167
10:32:19.378	0.824723
10:32:19.677	0.827122
10:32:20.078	0.835653
10:32:20.378	0.831611
10:32:20.677	0.828325
10:32:21.078	0.844773
10:32:21.378	0.837475
10:32:21.678	0.835757
10:32:22.077	0.867433
10:32:22.378	0.854665
10:32:22.779	0.848484
10:32:23.077	0.833110
10:32:23.477	0.799600
10:32:23.778	0.805680
10:32:24.177	0.805564
10:32:24.478	0.794234
10:32:24.877	0.788120
10:32:25.178	0.807618
10:32:25.478	0.820085
10:32:25.877	0.837472
10:32:26.178	0.852483
10:32:26.478	0.852759
10:32:26.878	0.823863
10:32:27.178	0.844280
10:32:27.578	0.830046
10:32:27.878	0.830770
10:32:28.277	0.827579
10:32:28.578	0.818070
10:32:28.979	0.837140
10:32:29.277	0.832583
10:32:29.677	0.823102
10:32:29.978	0.823116
10:32:30.378	0.822195
10:32:30.678	0.837040
10:32:31.077	0.851576
10:32:31.377	0.842208
10:32:31.678	0.838039
10:32:32.078	0.813088
10:32:32.377	0.798546
10:32:32.777	0.804565
10:32:33.078	0.833924
10:32:33.477	0.826732
10:32:33.778	0.837091
10:32:34.178	0.855633
10:32:34.478	0.852689
10:32:34.778	0.846702
10:32:35.178	0.846943
10:32:35.478	0.877008
10:32:35.778	0.882251
10:32:36.177	0.871784
10:32:36.477	0.830118
10:32:36.877	0.834948
10:32:37.178	0.829771
10:32:37.478	0.840079
10:32:37.878	0.838206
10:32:38.178	0.856583
10:32:38.578	0.855093
10:32:38.878	0.845851
10:32:39.277	0.841097
10:32:39.578	0.842356
10:32:39.877	0.857779
10:32:40.278	0.850526
10:32:40.578	0.834739
10:32:40.978	0.825823
10:32:41.278	0.828204
10:32:41.577	0.836919
10:32:41.978	0.855778
10:32:42.277	0.866235
10:32:42.678	0.864716
10:32:42.978	0.845051
10:32:43.377	0.841323
10:32:43.678	0.842744
10:32:44.077	0.847340
10:32:44.377	0.854683
10:32:44.778	0.891908
10:32:45.078	0.892973
10:32:45.477	0.902531
10:32:45.778	0.862822
10:32:46.178	0.914804
10:32:46.477	1.006721
10:32:46.878	1.112603
10:32:47.178	1.186200
10:32:47.478	1.297686
10:32:47.877	1.414323
10:32:48.178	1.476247
10:32:48.578	1.644938
10:32:48.877	1.838929
10:32:49.278	2.052092
10:32:49.578	2.168165
10:32:49.978	2.894289
10:32:51.278	3.089058
10:32:51.577	3.134338
10:32:51.978	3.150325
10:32:52.278	3.119832
10:32:52.578	3.018712
10:32:52.978	2.867820
10:32:53.278	2.780213
10:32:53.677	2.514255
10:32:53.979	2.245413
10:32:54.378	1.556215
10:32:55.677	1.402211
10:32:55.978	1.332506
10:32:56.378	1.219990
10:32:56.678	1.148844
10:32:57.077	1.068118
10:32:57.378	1.025364
10:32:57.779	1.001454
10:32:58.078	0.996983
10:32:58.378	0.932384
10:32:58.778	0.932110
10:32:59.078	0.917113
10:32:59.478	0.917411
10:32:59.778	0.904100
10:33:00.178	0.893936
10:33:00.478	0.883299
10:33:00.877	0.873368
10:33:01.178	0.876162
10:33:01.578	0.889657
10:33:01.878	0.893861
10:33:02.278	0.884033
10:33:02.578	0.864610
10:33:02.878	0.864421
10:33:03.277	0.860805
10:33:03.578	0.843512
10:33:03.878	0.855727
10:33:04.278	0.865370
10:33:04.577	0.869691
10:33:04.978	0.856529
10:33:05.278	0.823802
10:33:05.578	0.828134
10:33:05.978	0.824662
10:33:06.278	0.838426
10:33:06.678	0.810747
10:33:07.077	0.838652
10:33:07.377	0.830575
10:33:07.678	0.847506
10:33:08.078	0.832297
10:33:08.378	0.833593
10:33:08.778	0.842351
10:33:09.077	0.839320
10:33:09.477	0.830426
10:33:09.778	0.825160
10:33:10.178	0.813417
10:33:10.478	0.830657
10:33:10.778	0.825465
10:33:11.178	0.815993
10:33:11.478	0.836186
10:33:11.878	0.834158
10:33:12.178	0.861029
10:33:12.578	0.873240
10:33:12.878	0.877418
10:33:13.278	0.841017
10:33:13.578	0.838419
10:33:13.978	0.831958
10:33:14.279	0.850948
10:33:14.678	0.843041
10:33:14.978	0.852682
10:33:15.378	0.856275
10:33:15.678	0.863164
10:33:16.078	0.859896
10:33:16.378	0.831832
10:33:16.677	0.831713
10:33:17.078	0.830653
10:33:17.378	0.837357
10:33:17.778	0.866103
10:33:18.078	0.866418
10:33:18.478	0.877216
10:33:18.778	0.834313
10:33:19.078	0.887309
10:33:19.478	0.887241
10:33:19.778	0.868162
10:33:20.178	0.862670
10:33:20.478	0.869070
10:33:20.778	0.862710
10:33:21.178	0.867805
10:33:21.478	0.838937
10:33:21.778	0.843711
10:33:22.178	0.856609
10:33:22.478	0.844868
10:33:22.878	0.842768
10:33:23.178	0.848159
10:33:23.578	0.851982
10:33:23.878	0.830261
10:33:24.278	0.846323
10:33:24.578	0.867123
10:33:24.878	0.868082
10:33:25.278	0.856022
10:33:25.578	0.852030
10:33:25.978	0.851809
10:33:26.278	0.848841
10:33:26.678	0.837907
10:33:26.978	0.908528
10:33:27.378	0.904423
10:33:27.678	0.857483
10:33:28.078	0.830179
10:33:28.378	0.897785
10:33:28.778	0.917376
10:33:29.078	0.913454
10:33:29.478	0.898885
10:33:29.778	0.893363
10:33:30.178	0.946004
10:33:30.478	0.969352
10:33:30.778	1.077419
10:33:31.178	1.243085
10:33:31.478	1.340916
10:33:31.878	1.619070
10:33:32.178	1.972861
10:33:32.478	2.164739
10:33:32.878	3.812433
10:33:34.178	4.212417
10:33:34.478	4.382243
10:33:34.778	4.628063
10:33:35.178	4.765460
10:33:35.478	4.794320
10:33:35.778	4.805591
10:33:36.178	4.793625
10:33:36.478	4.672674
10:33:36.778	4.572051
10:33:37.178	4.421701
10:33:37.478	4.263515
10:33:37.878	4.098947
10:33:38.178	4.034519
10:33:38.578	3.932394
10:33:38.879	3.730961
10:33:39.178	3.640211
10:33:39.578	3.503232
10:33:39.878	3.395890
10:33:40.178	3.312501
10:33:40.578	3.223500
10:33:40.878	3.195249
10:33:41.178	3.192013
10:33:41.579	3.147126
10:33:41.878	3.155366
10:33:42.178	3.125123
10:33:42.579	3.112586
10:33:42.878	3.099040
10:33:43.178	3.058326
10:33:43.578	3.075991
10:33:43.878	3.070139
10:33:44.278	3.053767
10:33:44.578	3.027594
10:33:44.978	3.039720
10:33:45.278	3.049078
10:33:45.578	3.023831
10:33:45.978	2.997053
10:33:46.379	2.984949
10:33:46.678	2.982247
10:33:46.978	2.983895
10:33:47.378	3.033031
10:33:47.678	3.045692
10:33:48.078	3.081360
10:33:48.378	3.109895
10:33:48.778	3.113655
10:33:49.078	3.146311
10:33:49.478	3.221082
10:33:49.779	3.274527
10:33:50.078	3.378375
10:33:50.479	3.445187
10:33:50.778	3.550694
10:33:51.178	3.667838
10:33:51.478	3.871748
10:33:51.879	4.129903
10:33:52.178	4.299554
10:33:52.478	4.760262
10:33:52.878	5.412752
10:33:53.178	5.794029
10:33:53.578	989999999999
10:33:53.878	989999999999
10:33:54.178	989999999999
10:33:54.578	989999999999
10:33:54.879	989999999999
10:33:55.278	989999999999
10:33:55.578	989999999999
10:33:55.978	989999999999
10:33:56.278	989999999999
10:33:56.678	989999999999
10:33:56.979	989999999999
10:33:57.378	989999999999
10:33:57.679	989999999999
10:33:58.079	989999999999
10:33:58.379	989999999999
10:33:58.779	6.586838
10:33:59.078	6.023631
10:33:59.478	5.511364
10:33:59.779	5.084440
10:34:00.078	4.912200
10:34:00.478	4.520908
10:34:00.778	4.167985
10:34:01.178	3.844502
10:34:01.479	3.698050
10:34:01.778	3.463101
10:34:02.178	3.240507
10:34:02.479	3.129136
10:34:02.878	2.936538
10:34:03.178	2.743718
10:34:03.579	2.593260
10:34:03.878	2.531714
10:34:04.279	2.426745
10:34:04.578	2.289814
10:34:04.979	2.176979
10:34:05.278	2.125141
10:34:05.678	2.003076
10:34:05.978	1.694375
10:34:07.278	1.655577
10:34:07.578	1.645433
10:34:07.979	1.606516
10:34:08.279	1.562917
10:34:08.678	1.528071
10:34:08.979	1.501991
10:34:09.279	1.484875
10:34:09.679	1.471885
10:34:09.978	1.438898
10:34:10.378	1.419834
10:34:10.678	1.402696
10:34:10.978	1.395586
10:34:11.379	1.422717
10:34:11.679	1.421714
10:34:12.078	1.379664
10:34:12.379	1.350283
10:34:12.779	1.343551
10:34:13.079	1.354403
10:34:13.378	1.352887
10:34:13.779	1.360311
10:34:14.079	1.349521
10:34:14.479	1.330372
10:34:14.778	1.308147
10:34:15.079	1.285454
10:34:15.480	1.259236
10:34:15.779	1.278204
10:34:16.178	1.289941
10:34:16.478	1.298609
10:34:16.779	1.315681
10:34:17.179	1.329349
10:34:17.478	1.338342
10:34:17.878	1.377255
10:34:18.178	1.375758
10:34:18.579	1.324183
10:34:18.879	1.341480
10:34:19.178	1.356448
10:34:19.580	1.328557
10:34:19.878	1.338334
10:34:20.179	1.350380
10:34:20.579	1.371717
10:34:20.878	1.400397
10:34:21.279	1.418731
10:34:21.578	1.404912
10:34:21.979	1.402955
10:34:22.279	1.338096
10:34:22.679	1.328234
10:34:22.978	1.330403
10:34:23.278	1.313217
10:34:23.679	1.298927
10:34:23.978	1.281243
10:34:24.379	1.271767
10:34:24.679	1.273986
10:34:24.979	1.275961
10:34:25.378	1.235720
10:34:25.678	1.224374
10:34:26.078	1.240164
10:34:26.379	1.224957
10:34:26.779	1.255858
10:34:27.078	1.270829
10:34:27.378	1.279485
10:34:27.779	1.287158
10:34:28.079	1.310718
10:34:28.478	1.320139
10:34:28.779	1.327616
10:34:29.079	1.322472
10:34:29.479	1.364224
10:34:29.778	1.363077
10:34:30.179	1.443767
10:34:30.478	1.478461
10:34:30.879	1.474935
10:34:31.178	1.508167
10:34:31.579	1.514101
10:34:31.879	1.503152
10:34:32.179	1.502156
10:34:32.579	1.518704
10:34:32.878	1.506779
10:34:33.179	1.485078
10:34:33.578	1.469031
10:34:33.879	1.483297
10:34:34.179	1.470408
10:34:34.578	1.488557
10:34:34.879	1.498408
10:34:35.279	1.484870
10:34:35.579	1.471262
10:34:35.978	1.456382
10:34:36.279	1.520573
10:34:36.678	1.500606
10:34:36.978	1.494153
10:34:37.379	1.515920
10:34:37.679	1.570113
10:34:37.979	1.576070
10:34:38.378	1.657366
10:34:38.679	1.715851
10:34:39.079	1.786247
10:34:39.379	1.892080
10:34:39.778	1.949247
10:34:40.079	2.022467
10:34:40.479	2.091872
10:34:40.779	2.151285
10:34:41.179	2.348360
10:34:42.479	2.384619
10:34:42.779	2.353330
10:34:43.179	2.325939
10:34:43.479	2.287199
10:34:43.879	2.333547
10:34:44.178	2.369952
10:34:44.478	2.366222
10:34:44.879	2.363453
10:34:45.178	2.355042
10:34:45.479	2.364444
10:34:45.878	2.379279
10:34:46.178	2.310345
10:34:46.479	2.268241
10:34:46.879	2.269527
10:34:47.178	2.221243
10:34:47.479	2.203792
10:34:47.879	2.212244
10:34:48.179	2.137981
10:34:48.578	2.044571
10:34:48.879	2.022725
10:34:49.279	1.755663
10:34:50.578	1.663842
10:34:50.878	1.647105
10:34:51.279	1.544914
10:34:51.579	1.508576
10:34:51.979	1.445847
10:34:52.278	1.384526
10:34:52.579	1.363557
10:34:52.979	1.334126
10:34:53.279	1.308464