Chart Recorder Data File Fri, Sep 20, 2024 2:46 PM
Time (s)	CH1 (V)  
14:36:01.962	0.752402
14:36:02.761	0.764655
14:36:03.161	0.781695
14:36:03.461	0.762870
14:36:03.861	0.738924
14:36:04.162	0.735672
14:36:04.561	0.748833
14:36:04.862	0.780907
14:36:05.162	0.784402
14:36:05.561	0.792665
14:36:05.861	0.794918
14:36:06.162	0.797499
14:36:06.561	0.790524
14:36:06.863	0.789816
14:36:07.161	0.768259
14:36:07.561	0.822789
14:36:07.861	0.790772
14:36:08.161	0.809417
14:36:08.561	0.802053
14:36:08.862	0.779965
14:36:09.161	0.778808
14:36:09.561	0.771784
14:36:09.862	0.744426
14:36:10.262	0.695716
14:36:10.563	0.701375
14:36:10.962	0.739508
14:36:11.262	0.697699
14:36:11.662	0.724923
14:36:11.962	0.718340
14:36:12.362	0.728352
14:36:12.662	0.689866
14:36:12.962	0.690673
14:36:13.361	0.691426
14:36:13.662	0.699906
14:36:14.062	0.717333
14:36:14.362	0.720822
14:36:14.761	0.736089
14:36:15.062	0.740705
14:36:15.362	0.741772
14:36:15.762	0.725384
14:36:16.062	0.725174
14:36:16.461	0.723802
14:36:16.761	0.732980
14:36:17.162	0.761891
14:36:17.461	0.773429
14:36:17.862	0.746324
14:36:18.161	0.723057
14:36:18.562	0.732559
14:36:18.861	0.748047
14:36:19.161	0.721817
14:36:19.563	0.691396
14:36:19.861	0.692962
14:36:20.162	0.714645
14:36:20.562	0.763057
14:36:20.861	0.751701
14:36:21.261	0.719022
14:36:21.562	0.703535
14:36:21.862	0.691965
14:36:22.261	0.686587
14:36:22.561	0.696432
14:36:22.962	0.732126
14:36:23.261	0.720196
14:36:23.662	0.704121
14:36:23.961	0.699955
14:36:24.361	0.690657
14:36:24.661	0.732037
14:36:24.961	0.702222
14:36:25.361	0.705259
14:36:25.663	0.734840
14:36:25.962	0.772331
14:36:26.362	0.740848
14:36:26.662	0.731118
14:36:26.961	0.747844
14:36:27.361	0.809047
14:36:27.661	0.754224
14:36:28.061	0.737994
14:36:28.361	0.740973
14:36:28.661	0.730402
14:36:29.062	0.699465
14:36:29.362	0.752721
14:36:29.761	0.755823
14:36:30.062	0.731090
14:36:30.362	0.724556
14:36:30.762	0.716971
14:36:31.061	0.713781
14:36:31.461	0.711300
14:36:31.762	0.693821
14:36:32.062	0.694004
14:36:32.461	0.711933
14:36:32.763	0.745278
14:36:33.062	0.736606
14:36:33.461	0.715362
14:36:33.761	0.749778
14:36:34.062	0.742889
14:36:34.462	0.735308
14:36:34.761	0.741314
14:36:35.162	0.745392
14:36:35.462	0.743991
14:36:35.861	0.755171
14:36:36.162	0.753486
14:36:36.561	0.740139
14:36:36.862	0.736398
14:36:37.162	0.768676
14:36:37.561	0.722239
14:36:37.863	0.719235
14:36:38.261	0.725133
14:36:38.562	0.711522
14:36:38.962	0.714190
14:36:39.262	0.734145
14:36:39.662	0.746540
14:36:39.961	0.758318
14:36:40.261	0.745421
14:36:40.662	0.746378
14:36:40.962	0.756519
14:36:41.262	0.760431
14:36:41.662	0.762166
14:36:41.962	0.759939
14:36:42.362	0.759639
14:36:42.662	0.751527
14:36:43.061	0.745055
14:36:43.362	0.742178
14:36:43.761	0.751837
14:36:44.061	0.723318
14:36:44.361	0.727159
14:36:44.762	0.725643
14:36:45.062	0.734553
14:36:45.462	0.730376
14:36:45.761	0.725078
14:36:46.162	0.744928
14:36:46.462	0.745567
14:36:46.862	0.744638
14:36:47.161	0.752122
14:36:47.461	0.747910
14:36:47.861	0.750665
14:36:48.162	0.768576
14:36:48.462	0.786431
14:36:48.862	0.804044
14:36:49.162	0.817581
14:36:49.562	0.807268
14:36:49.861	0.800585
14:36:50.162	0.778817
14:36:50.562	0.739771
14:36:50.862	0.733881
14:36:51.162	0.732045
14:36:51.562	0.748403
14:36:51.861	0.751730
14:36:52.261	0.741934
14:36:52.562	0.759066
14:36:52.962	0.764202
14:36:53.262	0.759362
14:36:53.661	0.749862
14:36:53.961	0.742957
14:36:54.262	0.751759
14:36:54.662	0.780793
14:36:54.962	0.803519
14:36:55.262	0.799157
14:36:55.661	0.772443
14:36:55.961	0.773922
14:36:56.362	0.797138
14:36:56.662	0.809332
14:36:56.961	0.800524
14:36:57.362	0.783552
14:36:57.661	0.760266
14:36:58.061	0.769858
14:36:58.361	0.765589
14:36:58.763	0.749117
14:36:59.061	0.741899
14:36:59.461	0.721101
14:36:59.762	0.734311
14:37:00.162	0.765536
14:37:00.462	0.747685
14:37:00.862	0.770239
14:37:01.162	0.788460
14:37:01.461	0.786114
14:37:01.862	0.780874
14:37:02.162	0.746301
14:37:02.562	0.742506
14:37:02.862	0.754617
14:37:03.262	0.767111
14:37:03.562	0.755419
14:37:03.862	0.757680
14:37:04.262	0.766322
14:37:04.561	0.758104
14:37:04.962	0.804337
14:37:05.263	0.816671
14:37:05.561	0.813922
14:37:05.962	0.794892
14:37:06.262	0.798547
14:37:06.661	0.833215
14:37:06.963	0.815973
14:37:07.262	0.833006
14:37:07.662	0.854915
14:37:07.962	0.825006
14:37:08.362	0.812794
14:37:08.662	0.774791
14:37:09.062	0.775900
14:37:09.361	0.774708
14:37:09.762	0.795072
14:37:10.062	0.809497
14:37:10.462	0.789879
14:37:10.762	0.799108
14:37:11.162	0.803744
14:37:11.462	0.789679
14:37:11.861	0.797419
14:37:12.161	0.793398
14:37:12.461	0.792057
14:37:12.862	0.774841
14:37:13.162	0.773149
14:37:13.562	0.749499
14:37:13.862	0.753461
14:37:14.262	0.746501
14:37:14.561	0.763156
14:37:14.862	0.756582
14:37:15.262	0.718880
14:37:15.562	0.737785
14:37:15.961	0.754276
14:37:16.262	0.772095
14:37:16.562	0.760906
14:37:16.962	0.748869
14:37:17.262	0.757105
14:37:17.662	0.772878
14:37:17.962	0.765530
14:37:18.262	0.769727
14:37:18.662	0.756949
14:37:18.961	0.769134
14:37:19.262	0.780257
14:37:19.662	0.806024
14:37:19.962	0.769305
14:37:20.362	0.756481
14:37:20.761	0.759577
14:37:21.062	0.759184
14:37:21.362	0.801984
14:37:21.763	0.786189
14:37:22.062	0.790689
14:37:22.362	0.808787
14:37:22.762	0.822100
14:37:23.061	0.802338
14:37:23.462	0.804587
14:37:23.762	0.801906
14:37:24.162	0.798883
14:37:24.462	0.825361
14:37:24.862	0.836662
14:37:25.162	0.823056
14:37:25.461	0.796073
14:37:25.862	0.753216
14:37:26.162	0.780155
14:37:26.462	0.783874
14:37:26.862	0.788576
14:37:27.161	0.781994
14:37:27.562	0.783518
14:37:27.862	0.776792
14:37:28.261	0.772605
14:37:28.562	0.758513
14:37:28.962	0.757987
14:37:29.263	0.779718
14:37:29.562	0.774868
14:37:29.962	0.766140
14:37:30.262	0.763372
14:37:30.662	0.778056
14:37:30.962	0.799051
14:37:31.362	0.796434
14:37:31.661	0.782505
14:37:32.063	0.793027
14:37:32.362	0.748525
14:37:32.661	0.739635
14:37:33.062	0.763815
14:37:33.361	0.778559
14:37:33.762	0.760596
14:37:34.061	0.756727
14:37:34.462	0.766029
14:37:34.862	0.740572
14:37:35.162	0.747374
14:37:35.561	0.741774
14:37:35.862	0.744006
14:37:36.261	0.749953
14:37:36.562	0.732505
14:37:36.861	0.728854
14:37:37.262	0.715523
14:37:37.562	0.718569
14:37:37.962	0.752382
14:37:38.262	0.753940
14:37:38.662	0.752577
14:37:38.961	0.752598
14:37:39.362	0.738109
14:37:39.661	0.754848
14:37:40.061	0.764962
14:37:40.362	0.781993
14:37:40.662	0.792788
14:37:41.063	0.777368
14:37:41.362	0.775978
14:37:41.762	0.756782
14:37:42.162	0.748726
14:37:42.461	0.739193
14:37:42.762	0.746201
14:37:43.161	0.779910
14:37:43.462	0.757486
14:37:43.761	0.761659
14:37:44.161	0.786425
14:37:44.462	0.800389
14:37:44.762	0.779601
14:37:45.163	0.746289
14:37:45.462	0.756115
14:37:45.862	0.777656
14:37:46.161	0.788585
14:37:46.563	0.765931
14:37:46.861	0.768462
14:37:47.162	0.733086
14:37:47.561	0.735520
14:37:47.861	0.746400
14:37:48.262	0.736764
14:37:48.562	0.763037
14:37:48.962	0.758685
14:37:49.262	0.759023
14:37:49.661	0.738735
14:37:49.962	0.743938
14:37:50.262	0.755133
14:37:50.661	0.742688
14:37:50.961	0.736217
14:37:51.261	0.741114
14:37:51.661	0.752807
14:37:51.962	0.784175
14:37:52.262	0.770307
14:37:52.662	0.760364
14:37:52.961	0.765350
14:37:53.362	0.737223
14:37:53.661	0.745571
14:37:54.062	0.754113
14:37:54.362	0.759157
14:37:54.762	0.768020
14:37:55.061	0.765758
14:37:55.362	0.777557
14:37:55.762	0.761430
14:37:56.162	0.779412
14:37:56.462	0.760633
14:37:56.761	0.751741
14:37:57.162	0.720073
14:37:57.462	0.704316
14:37:57.762	0.722859
14:37:58.162	0.737219
14:37:58.462	0.742314
14:37:58.762	0.742867
14:37:59.162	0.760381
14:37:59.462	0.789360
14:37:59.862	0.774966
14:38:00.162	0.785382
14:38:00.462	0.779512
14:38:00.862	0.788953
14:38:01.162	0.798585
14:38:01.561	0.781050
14:38:01.862	0.757687
14:38:02.262	0.759259
14:38:02.561	0.792098
14:38:02.961	0.797431
14:38:03.262	0.788182
14:38:03.662	0.801040
14:38:03.962	0.787642
14:38:04.362	0.780979
14:38:04.662	0.783642
14:38:04.962	0.768405
14:38:05.362	0.754097
14:38:05.662	0.759651
14:38:06.062	0.745028
14:38:06.362	0.750984
14:38:06.762	0.772669
14:38:07.062	0.770628
14:38:07.462	0.781071
14:38:07.762	0.793548
14:38:08.162	0.785181
14:38:08.462	0.805508
14:38:08.762	0.833159
14:38:09.162	0.837990
14:38:09.462	0.851821
14:38:09.862	0.829015
14:38:10.163	0.811762
14:38:10.562	0.844397
14:38:10.862	0.875612
14:38:11.262	0.823559
14:38:11.562	0.813837
14:38:11.862	0.797590
14:38:12.262	0.795794
14:38:12.562	0.796564
14:38:12.862	0.790350
14:38:13.262	0.816212
14:38:13.562	0.821834
14:38:13.962	0.829653
14:38:14.262	0.830139
14:38:14.661	0.842369
14:38:14.962	0.862389
14:38:15.363	0.878203
14:38:15.662	0.876918
14:38:16.062	0.878401
14:38:16.362	0.872912
14:38:16.662	0.882284
14:38:17.062	0.899038
14:38:17.362	0.918957
14:38:17.762	0.932383
14:38:18.061	0.966622
14:38:18.461	0.996680
14:38:18.762	0.991135
14:38:19.162	0.983258
14:38:19.461	0.987340
14:38:19.762	1.014933
14:38:20.162	1.016927
14:38:20.462	1.009277
14:38:20.762	1.043450
14:38:21.161	1.070223
14:38:21.462	1.100336
14:38:21.762	1.163571
14:38:22.162	1.199161
14:38:22.462	1.216141
14:38:22.762	1.255302
14:38:23.162	1.312299
14:38:23.462	1.313886
14:38:23.761	1.327999
14:38:24.162	1.342639
14:38:24.561	1.357351
14:38:24.861	1.370337
14:38:25.162	1.385157
14:38:25.562	1.397540
14:38:25.862	1.367246
14:38:26.162	1.395244
14:38:26.562	1.430679
14:38:26.862	1.414627
14:38:27.262	1.407792
14:38:27.562	1.404889
14:38:27.962	1.392778
14:38:28.262	1.395692
14:38:28.662	1.382806
14:38:28.962	1.365672
14:38:29.362	1.369472
14:38:29.662	1.310462
14:38:29.962	1.284727
14:38:30.362	1.241978
14:38:30.662	1.217227
14:38:30.962	1.221569
14:38:31.362	1.232263
14:38:31.662	1.202493
14:38:32.062	1.179527
14:38:32.362	1.175968
14:38:32.762	1.167354
14:38:33.062	1.146812
14:38:33.462	1.121717
14:38:33.762	1.089531
14:38:34.062	1.063755
14:38:34.462	1.078683
14:38:34.762	1.080723
14:38:35.162	1.089258
14:38:35.463	1.092317
14:38:35.762	1.053582
14:38:36.162	1.045801
14:38:36.462	1.035457
14:38:36.862	1.024671
14:38:37.162	1.022600
14:38:37.562	1.059084
14:38:37.862	1.070668
14:38:38.162	1.061018
14:38:38.562	1.035467
14:38:38.863	1.038164
14:38:39.262	1.045963
14:38:39.562	1.046509
14:38:39.862	1.049326
14:38:40.262	1.040686
14:38:40.562	1.043355
14:38:40.862	1.016712
14:38:41.262	1.018803
14:38:41.562	1.026351
14:38:41.862	1.052133
14:38:42.262	1.044160
14:38:42.562	1.038701
14:38:42.862	1.023345
14:38:43.262	1.017458
14:38:43.562	1.022108
14:38:43.862	1.031869
14:38:44.262	1.050319
14:38:44.562	1.062196
14:38:44.862	1.048350
14:38:45.263	1.073255
14:38:45.562	1.088004
14:38:45.962	1.104155
14:38:46.262	1.079405
14:38:46.662	1.067680
14:38:46.962	1.056644
14:38:47.362	1.067061
14:38:47.662	1.065521
14:38:47.962	1.073244
14:38:48.363	1.074328
14:38:48.662	1.096483
14:38:49.063	1.110831
14:38:49.363	1.107577
14:38:49.763	1.102697
14:38:50.062	1.079755
14:38:50.462	1.059680
14:38:50.762	1.044519
14:38:51.062	1.045486
14:38:51.462	1.058861
14:38:51.762	1.075620
14:38:52.062	1.070901
14:38:52.462	1.019313
14:38:52.762	1.034401
14:38:53.163	1.045548
14:38:53.563	1.016348
14:38:53.863	1.014285
14:38:54.162	1.039134
14:38:54.562	1.028552
14:38:54.862	1.027918
14:38:55.162	1.024987
14:38:55.562	1.022592
14:38:55.862	1.000899
14:38:56.262	1.006155
14:38:56.562	1.026215
14:38:56.862	1.053727
14:38:57.262	1.023126
14:38:57.562	1.009104
14:38:57.963	1.035428
14:38:58.262	1.059909
14:38:58.662	1.031935
14:38:58.963	0.999648
14:38:59.362	0.978648
14:38:59.662	0.964354
14:39:00.062	0.924558
14:39:00.362	0.910850
14:39:00.762	0.899657
14:39:01.063	0.892395
14:39:01.463	0.883251
14:39:01.762	0.875350
14:39:02.062	0.851405
14:39:02.463	0.852476
14:39:02.763	0.851955
14:39:03.163	0.839408
14:39:03.462	0.821621
14:39:03.863	0.848807
14:39:04.163	0.827639
14:39:04.562	0.807576
14:39:04.862	0.788222
14:39:05.163	0.811390
14:39:05.563	0.795385
14:39:05.862	0.792931
14:39:06.162	0.795638
14:39:06.562	0.795110
14:39:06.962	0.781993
14:39:07.263	0.793715
14:39:07.663	0.803847
14:39:07.962	0.791820
14:39:08.363	0.777338
14:39:08.662	0.737429
14:39:08.963	0.731940
14:39:09.363	0.721194
14:39:09.663	0.706767
14:39:09.963	0.697450
14:39:10.362	0.706062
14:39:10.663	0.709667
14:39:11.063	0.722919
14:39:11.363	0.735405
14:39:11.763	0.740056
14:39:12.063	0.741779
14:39:12.362	0.725517
14:39:12.762	0.739211
14:39:13.063	0.739489
14:39:13.463	0.731239
14:39:13.763	0.736510
14:39:14.163	0.748991
14:39:14.462	0.746066
14:39:14.762	0.740675
14:39:15.163	0.762410
14:39:15.462	0.779433
14:39:15.863	0.782586
14:39:16.163	0.778762
14:39:16.563	0.760553
14:39:16.862	0.760720
14:39:17.163	0.758885
14:39:17.563	0.772204
14:39:17.862	0.768625
14:39:18.162	0.802379
14:39:18.562	0.783590
14:39:18.863	0.728167
14:39:19.163	0.738693
14:39:19.562	0.749805
14:39:19.862	0.746980
14:39:20.163	0.727993
14:39:20.563	0.744282
14:39:20.862	0.753022
14:39:21.263	0.763619
14:39:21.563	0.768070
14:39:21.963	0.738733
14:39:22.263	0.749089
14:39:22.662	0.756867
14:39:22.962	0.729923
14:39:23.362	0.732330
14:39:23.662	0.734630
14:39:23.963	0.742630
14:39:24.362	0.749197
14:39:24.662	0.754360
14:39:25.063	0.764115
14:39:25.362	0.769884
14:39:25.763	0.740540
14:39:26.063	0.759048
14:39:26.362	0.757628
14:39:26.763	0.756663
14:39:27.063	0.734450
14:39:27.362	0.732381
14:39:27.762	0.776650
14:39:28.063	0.775805
14:39:28.463	0.762907
14:39:28.763	0.764238
14:39:29.163	0.736459
14:39:29.463	0.746359
14:39:29.862	0.754823
14:39:30.163	0.726835
14:39:30.463	0.701530
14:39:30.862	0.703306
14:39:31.163	0.719010
14:39:31.562	0.729947
14:39:31.863	0.747598
14:39:32.162	0.750003
14:39:32.563	0.737979
14:39:32.862	0.730670
14:39:33.163	0.739114
14:39:33.563	0.804078
14:39:33.862	0.773809
14:39:34.163	0.752029
14:39:34.563	0.755168
14:39:34.863	0.765691
14:39:35.263	0.760785
14:39:35.563	0.738403
14:39:35.963	0.730059
14:39:36.262	0.718075
14:39:36.663	0.733314
14:39:36.962	0.727704
14:39:37.263	0.742643
14:39:37.662	0.732320
14:39:37.963	0.702736
14:39:38.362	0.714867
14:39:38.762	0.725928
14:39:39.062	0.714385
14:39:39.463	0.725545
14:39:39.763	0.775418
14:39:40.162	0.805599
14:39:40.462	0.806455
14:39:40.763	0.775963
14:39:41.163	0.773450
14:39:41.463	0.779596
14:39:41.862	0.771728
14:39:42.162	0.792721
14:39:42.563	0.825185
14:39:42.862	0.830421
14:39:43.263	0.841499
14:39:43.562	0.818884
14:39:43.962	0.793218
14:39:44.263	0.762303
14:39:44.563	0.747109
14:39:44.963	0.722517
14:39:45.262	0.723685
14:39:45.563	0.723126
14:39:45.962	0.717023
14:39:46.263	0.738846
14:39:46.563	0.740151
14:39:46.963	0.736590
14:39:47.263	0.761646
14:39:47.563	0.757323
14:39:47.963	0.737925
14:39:48.262	0.727483
14:39:48.562	0.731371
14:39:48.963	0.734359
14:39:49.263	0.756494
14:39:49.662	0.786169
14:39:49.962	0.772859
14:39:50.263	0.774193
14:39:50.663	0.760119
14:39:50.963	0.752747
14:39:51.263	0.733385
14:39:51.663	0.724419
14:39:51.963	0.720723
14:39:52.262	0.739063
14:39:52.663	0.787496
14:39:52.962	0.784666
14:39:53.363	0.809123
14:39:53.763	0.801172
14:39:54.063	0.813639
14:39:54.363	0.816890
14:39:54.763	0.792890
14:39:55.064	0.802556
14:39:55.362	0.784028
14:39:55.763	0.763881
14:39:56.063	0.768963
14:39:56.463	0.801090
14:39:56.762	0.784476
14:39:57.163	0.791804
14:39:57.463	0.799069
14:39:57.763	0.801917
14:39:58.163	0.773460
14:39:58.462	0.733172
14:39:58.863	0.754728
14:39:59.163	0.774552
14:39:59.462	0.746436
14:39:59.864	0.738696
14:40:00.163	0.771528
14:40:00.562	0.802030
14:40:00.862	0.786451
14:40:01.163	0.782751
14:40:01.563	0.796566
14:40:01.862	0.774297
14:40:02.263	0.745445
14:40:02.563	0.742160
14:40:02.863	0.743861
14:40:03.263	0.761575
14:40:03.562	0.773678
14:40:03.963	0.745339
14:40:04.264	0.736404
14:40:04.563	0.746711
14:40:04.963	0.770071
14:40:05.263	0.744263
14:40:05.563	0.747977
14:40:05.963	0.764736
14:40:06.263	0.742724
14:40:06.563	0.773139
14:40:06.963	0.772207
14:40:07.263	0.769322
14:40:07.562	0.750035
14:40:07.963	0.763530
14:40:08.263	0.770676
14:40:08.563	0.753290
14:40:08.963	0.774065
14:40:09.262	0.786685
14:40:09.663	0.772128
14:40:09.963	0.755291
14:40:10.363	0.750371
14:40:10.663	0.751220
14:40:10.964	0.782007
14:40:11.363	0.796006
14:40:11.663	0.798073
14:40:12.063	0.754387
14:40:12.363	0.711636
14:40:12.662	0.714513
14:40:13.063	0.727277
14:40:13.363	0.735355
14:40:13.763	0.748597
14:40:14.063	0.727725
14:40:14.463	0.729749
14:40:14.762	0.754915
14:40:15.062	0.771672
14:40:15.463	0.780522
14:40:15.763	0.786100
14:40:16.163	0.752824
14:40:16.463	0.741546
14:40:16.763	0.768774
14:40:17.163	0.768137
14:40:17.563	0.746851
14:40:17.863	0.744932
14:40:18.263	0.740243
14:40:18.562	0.708899
14:40:18.963	0.698732
14:40:19.262	0.723070
14:40:19.563	0.736244
14:40:19.963	0.767570
14:40:20.263	0.783922
14:40:20.563	0.751736
14:40:20.963	0.719448
14:40:21.262	0.710079
14:40:21.562	0.744002
14:40:21.963	0.760400
14:40:22.263	0.764754
14:40:22.563	0.750295
14:40:22.962	0.720206
14:40:23.263	0.728598
14:40:23.562	0.741630
14:40:23.963	0.730224
14:40:24.263	0.736921
14:40:24.662	0.733785
14:40:24.962	0.753707
14:40:25.363	0.790988
14:40:25.662	0.786013
14:40:26.063	0.767685
14:40:26.362	0.748267
14:40:26.662	0.754822
14:40:27.063	0.774824
14:40:27.363	0.794125
14:40:27.762	0.820288
14:40:28.063	0.843150
14:40:28.463	0.887570
14:40:28.763	0.920772
14:40:29.063	1.011619
14:40:29.462	1.015422
14:40:29.763	0.995717
14:40:30.163	1.035547
14:40:30.463	1.112443
14:40:30.763	1.162283
14:40:31.163	1.231339
14:40:31.563	1.290786
14:40:31.863	1.325768
14:40:32.262	1.415656
14:40:32.563	1.446995
14:40:32.863	1.523236
14:40:33.263	1.634932
14:40:33.563	1.665885
14:40:33.863	1.776891
14:40:34.263	1.901584
14:40:34.562	1.966099
14:40:34.963	2.001186
14:40:35.263	2.057927
14:40:35.662	2.099593
14:40:35.963	2.104770
14:40:36.363	2.097593
14:40:36.663	2.075518
14:40:36.962	2.045337
14:40:37.362	2.012733
14:40:37.663	1.960110
14:40:38.063	1.899356
14:40:38.362	1.843409
14:40:38.763	1.792260
14:40:39.063	1.760952
14:40:39.463	1.689331
14:40:39.762	1.566818
14:40:40.063	1.492048
14:40:40.463	1.364666
14:40:40.763	1.253033
14:40:41.163	1.187974
14:40:41.463	1.145979
14:40:41.763	1.092342
14:40:42.162	1.021230
14:40:42.463	0.982368
14:40:42.763	0.953546
14:40:43.162	0.907253
14:40:43.463	0.902095
14:40:43.763	0.877153
14:40:44.163	0.835718
14:40:44.463	0.806399
14:40:44.763	0.802888
14:40:45.163	0.800787
14:40:45.563	0.810311
14:40:45.863	0.803116
14:40:46.262	0.780206
14:40:46.563	0.763114
14:40:46.863	0.755647
14:40:47.263	0.737915
14:40:47.563	0.735369
14:40:47.863	0.735160
14:40:48.262	0.740706
14:40:48.563	0.743802
14:40:48.863	0.768701
14:40:49.263	0.759176
14:40:49.562	0.755627
14:40:49.863	0.761431
14:40:50.263	0.795399
14:40:50.563	0.788424
14:40:50.863	0.771820
14:40:51.263	0.794763
14:40:51.563	0.795941
14:40:51.863	0.777134
14:40:52.263	0.770699
14:40:52.563	0.769978
14:40:52.963	0.785217
14:40:53.263	0.786673
14:40:53.563	0.779917
14:40:53.963	0.771136
14:40:54.263	0.765207
14:40:54.663	0.770288
14:40:54.963	0.766440
14:40:55.263	0.750011
14:40:55.663	0.764404
14:40:55.963	0.762255
14:40:56.363	0.759528
14:40:56.663	0.758172
14:40:56.963	0.741616
14:40:57.363	0.752610
14:40:57.663	0.754718
14:40:57.963	0.770707
14:40:58.364	0.776833
14:40:58.663	0.774901
14:40:58.963	0.773785
14:40:59.363	0.763556
14:40:59.663	0.763383
14:41:00.062	0.750103
14:41:00.363	0.743107
14:41:00.663	0.740131
14:41:01.062	0.737382
14:41:01.363	0.729296
14:41:01.663	0.714704
14:41:02.063	0.701529
14:41:02.363	0.691909
14:41:02.763	0.696822
14:41:03.063	0.717717
14:41:03.463	0.719045
14:41:03.762	0.705123
14:41:04.063	0.708967
14:41:04.462	0.710265
14:41:04.763	0.714944
14:41:05.063	0.722286
14:41:05.463	0.735255
14:41:05.763	0.732866
14:41:06.062	0.752338
14:41:06.463	0.776810
14:41:06.763	0.782287
14:41:07.063	0.813230
14:41:07.463	0.820103
14:41:07.762	0.823353
14:41:08.063	0.798039
14:41:08.463	0.795701
14:41:08.762	0.768495
14:41:09.062	0.772554
14:41:09.463	0.760504
14:41:09.763	0.753705
14:41:10.163	0.769400
14:41:10.462	0.774086
14:41:10.763	0.767338
14:41:11.163	0.762033
14:41:11.463	0.759729
14:41:11.763	0.774613
14:41:12.163	0.783977
14:41:12.463	0.797226
14:41:12.763	0.812660
14:41:13.163	0.793073
14:41:13.563	0.779256
14:41:13.864	0.783683
14:41:14.163	0.768770
14:41:14.563	0.764513
14:41:14.863	0.748872
14:41:15.163	0.745415
14:41:15.563	0.760227
14:41:15.862	0.759688
14:41:16.163	0.793149
14:41:16.563	0.812065
14:41:16.863	0.823677
14:41:17.264	0.810534
14:41:17.563	0.799129
14:41:17.863	0.796617
14:41:18.263	0.758113
14:41:18.563	0.754792
14:41:18.863	0.747880
14:41:19.263	0.726650
14:41:19.563	0.721257
14:41:19.863	0.739785
14:41:20.263	0.746091
14:41:20.563	0.752895
14:41:20.963	0.755184
14:41:21.263	0.779294
14:41:21.563	0.786936
14:41:21.963	0.775883
14:41:22.262	0.754808
14:41:22.563	0.760582
14:41:22.962	0.771784
14:41:23.263	0.751496
14:41:23.563	0.745665
14:41:23.963	0.735306
14:41:24.263	0.728612
14:41:24.663	0.728663
14:41:24.962	0.724599
14:41:25.263	0.736554
14:41:25.663	0.738493
14:41:25.963	0.727810
14:41:26.363	0.748121
14:41:26.663	0.756318
14:41:27.063	0.731220
14:41:27.463	0.758383
14:41:27.764	0.762197
14:41:28.063	0.762177
14:41:28.463	0.769988
14:41:28.763	0.777529
14:41:29.063	0.776077
14:41:29.463	0.772805
14:41:29.763	0.744729
14:41:30.063	0.743729
14:41:30.463	0.775889
14:41:30.763	0.770045
14:41:31.063	0.770352
14:41:31.463	0.775697
14:41:31.763	0.772254
14:41:32.063	0.784013
14:41:32.463	0.784087
14:41:32.763	0.773588
14:41:33.063	0.765977
14:41:33.463	0.759288
14:41:33.763	0.761738
14:41:34.063	0.770826
14:41:34.464	0.779739
14:41:34.763	0.782325
14:41:35.063	0.769974
14:41:35.463	0.762698
14:41:35.763	0.769334
14:41:36.063	0.784568
14:41:36.462	0.802580
14:41:36.763	0.803680
14:41:37.063	0.790430
14:41:37.463	0.781121
14:41:37.763	0.795039
14:41:38.163	0.817111
14:41:38.463	0.782695
14:41:38.864	0.781760
14:41:39.163	0.801409
14:41:39.563	0.803514
14:41:39.863	0.795330
14:41:40.163	0.778390
14:41:40.563	0.765681
14:41:40.864	0.753993
14:41:41.263	0.768498
14:41:41.663	0.777119
14:41:41.963	0.810766
14:41:42.263	0.814285
14:41:42.663	0.821111
14:41:42.964	0.805801
14:41:43.263	0.792769
14:41:43.664	0.777215
14:41:43.965	0.768561
14:41:44.263	0.764260
14:41:44.663	0.776730
14:41:44.963	0.796890
14:41:45.363	0.763178
14:41:45.663	0.754095
14:41:45.963	0.750488
14:41:46.364	0.757921
14:41:46.663	0.760919
14:41:46.963	0.775162
14:41:47.363	0.778704
14:41:47.663	0.786265
14:41:47.964	0.783287
14:41:48.363	0.760007
14:41:48.663	0.751607
14:41:49.063	0.753819
14:41:49.363	0.748023
14:41:49.663	0.737933
14:41:50.063	0.753266
14:41:50.363	0.745870
14:41:50.763	0.746872
14:41:51.063	0.745505
14:41:51.364	0.742254
14:41:51.763	0.760403
14:41:52.063	0.783711
14:41:52.463	0.822858
14:41:52.763	0.845969
14:41:53.064	0.872091
14:41:53.463	0.847194
14:41:53.763	0.836922
14:41:54.064	0.820995
14:41:54.463	0.794257
14:41:54.763	0.793726
14:41:55.164	0.801474
14:41:55.463	0.810098
14:41:55.863	0.843327
14:41:56.163	0.867902
14:41:56.563	0.875611
14:41:56.864	0.882207
14:41:57.163	0.894875
14:41:57.563	0.969146
14:41:57.863	0.989181
14:41:58.163	1.024064
14:41:58.563	1.084990
14:41:58.863	1.116841
14:41:59.264	1.192454
14:41:59.563	1.325080
14:41:59.863	1.383340
14:42:00.264	1.489010
14:42:00.563	1.594069
14:42:00.963	1.746760
14:42:01.263	1.805172
14:42:01.564	1.919596
14:42:01.964	1.968849
14:42:02.364	2.086634
14:42:02.663	2.451364
14:42:03.963	2.558223
14:42:04.263	2.605816
14:42:04.564	2.677826
14:42:04.964	2.702833
14:42:05.264	2.700161
14:42:05.563	2.709702
14:42:05.964	2.712403
14:42:06.263	2.705524
14:42:06.664	2.664175
14:42:06.965	2.662819
14:42:07.363	2.651922
14:42:07.664	2.599639
14:42:08.064	2.522054
14:42:08.364	2.475212
14:42:08.664	2.410153
14:42:09.063	2.390729
14:42:09.365	2.361944
14:42:09.764	2.337150
14:42:10.064	2.257319
14:42:10.463	2.212708
14:42:10.764	2.187745
14:42:11.164	2.143878
14:42:11.463	2.118531
14:42:11.864	2.098598
14:42:12.164	2.093169
14:42:12.463	2.075706
14:42:12.864	2.051880
14:42:13.163	2.054137
14:42:13.464	2.010793
14:42:13.863	2.021297
14:42:14.164	2.008835
14:42:14.463	2.016735
14:42:14.864	2.023685
14:42:15.164	2.000516
14:42:15.463	1.990405
14:42:16.764	2.009667
14:42:17.064	2.029938
14:42:17.364	2.042024
14:42:17.764	2.020896
14:42:18.064	1.980211
14:42:18.465	1.991405
14:42:18.764	1.996531
14:42:19.164	1.959646
14:42:19.463	1.998926
14:42:19.764	1.994735
14:42:20.163	1.978926
14:42:20.464	1.966774
14:42:20.764	1.971600
14:42:21.163	2.038129
14:42:21.464	2.049636
14:42:21.764	2.038741
14:42:22.164	2.050294
14:42:22.465	2.026520
14:42:22.863	2.016896
14:42:23.163	2.004882
14:42:23.464	1.964011
14:42:23.863	1.982127
14:42:24.164	1.989665
14:42:24.464	1.968456
14:42:24.864	2.005125
14:42:25.163	2.005227
14:42:25.563	2.008235
14:42:25.863	1.993501
14:42:26.164	1.982866
14:42:26.563	1.987430
14:42:26.864	2.004395
14:42:27.164	2.034775
14:42:27.564	2.030033
14:42:27.864	2.019473
14:42:28.264	1.989515
14:42:28.563	1.982982
14:42:28.964	2.010350
14:42:29.263	2.013605
14:42:29.563	2.017154
14:42:29.963	2.062844
14:42:30.264	2.065417
14:42:30.564	2.034026
14:42:30.964	2.008208
14:42:31.264	2.035323
14:42:31.563	2.054328
14:42:31.963	2.054695
14:42:32.264	2.056425
14:42:32.664	1.990292
14:42:32.963	1.978526
14:42:33.264	1.985046
14:42:33.664	1.984579
14:42:33.963	1.994304
14:42:34.263	2.003556
14:42:34.664	2.009055
14:42:34.963	2.058519
14:42:35.264	2.081749
14:42:35.664	2.057872
14:42:35.963	2.066025
14:42:36.364	2.077684
14:42:36.664	2.105777
14:42:36.964	2.122239
14:42:37.364	2.168216
14:42:37.663	2.190391
14:42:37.964	2.339855
14:42:39.264	2.403498
14:42:39.564	2.443322
14:42:39.964	2.485896
14:42:40.263	2.589008
14:42:40.663	2.706473
14:42:40.963	2.768068
14:42:41.263	2.885066
14:42:41.663	3.069769
14:42:41.964	3.232114
14:42:42.264	3.294613
14:42:42.664	3.434129
14:42:42.963	3.595428
14:42:43.364	3.791274
14:42:43.664	3.866700
14:42:44.064	4.078442
14:42:44.364	4.196872
14:42:44.664	4.276138
14:42:45.063	4.421933
14:42:45.364	4.551864
14:42:45.663	4.577712
14:42:46.064	4.590604
14:42:46.363	4.596494
14:42:46.664	4.576826
14:42:47.063	4.526442
14:42:47.363	4.412583
14:42:47.664	4.318514
14:42:48.064	4.221965
14:42:48.363	4.101906
14:42:48.664	3.951482
14:42:49.064	3.885993
14:42:49.365	3.761585
14:42:49.663	3.653383
14:42:50.063	3.495467
14:42:50.364	3.391391
14:42:50.763	3.219472
14:42:51.064	3.097653
14:42:51.464	2.986567
14:42:51.763	2.929053
14:42:52.064	2.800612
14:42:52.464	2.697262
14:42:52.764	2.644456
14:42:53.164	2.543975
14:42:53.464	2.441943
14:42:53.763	2.389761
14:42:54.163	2.317535
14:42:54.563	2.275596
14:42:54.864	2.200966
14:42:55.264	2.143000
14:42:55.564	2.112159
14:42:55.863	2.045423
14:42:56.263	1.911001
14:42:57.564	1.844164
14:42:57.863	1.800760
14:42:58.164	1.772156
14:42:58.564	1.737379
14:42:58.864	1.690929
14:42:59.264	1.631598
14:42:59.563	1.610611
14:42:59.864	1.587983
14:43:00.264	1.577928
14:43:00.564	1.557057
14:43:00.864	1.538488
14:43:01.264	1.505611
14:43:01.564	1.483816
14:43:01.963	1.440837
14:43:02.263	1.420408
14:43:02.663	1.402565
14:43:02.963	1.391532
14:43:03.364	1.355272
14:43:03.664	1.337816
14:43:03.963	1.334307
14:43:04.363	1.315715
14:43:04.663	1.304170
14:43:04.964	1.290813
14:43:05.364	1.251078
14:43:05.664	1.246887
14:43:06.064	1.210493
14:43:06.364	1.195613
14:43:06.664	1.190420
14:43:07.063	1.205284
14:43:07.364	1.179048
14:43:07.664	1.149367
14:43:08.064	1.116565
14:43:08.364	1.085689
14:43:08.664	1.081799
14:43:09.065	1.084314
14:43:09.364	1.067190
14:43:09.664	1.074735
14:43:10.063	1.084388
14:43:10.363	1.087604
14:43:10.664	1.085952
14:43:11.064	1.081488
14:43:11.363	1.080906
14:43:11.664	1.077394
14:43:12.064	1.028820
14:43:12.364	1.008741
14:43:12.764	1.012148
14:43:13.064	1.016644
14:43:13.464	1.011686
14:43:13.764	0.993892
14:43:14.064	1.007360
14:43:14.464	1.028948
14:43:14.763	1.034247
14:43:15.163	1.008680
14:43:15.464	1.015257
14:43:15.864	1.032461
14:43:16.264	1.049221
14:43:16.563	1.043136
14:43:16.864	1.054761
14:43:17.263	1.059114
14:43:17.564	1.049290
14:43:17.864	1.038766
14:43:18.264	1.026025
14:43:18.564	1.016412
14:43:18.864	1.043733
14:43:19.264	1.044461
14:43:19.564	1.014263
14:43:19.964	1.012314
14:43:20.263	0.986536
14:43:20.564	0.984676
14:43:20.964	1.004998
14:43:21.264	1.002974
14:43:21.564	1.010214
14:43:21.964	1.007561
14:43:22.264	1.019498
14:43:22.564	0.982004
14:43:22.963	0.992270
14:43:23.264	0.996837
14:43:23.564	0.999045
14:43:23.964	0.998704
14:43:24.264	0.993139
14:43:24.564	0.989312
14:43:24.964	1.001698
14:43:25.264	1.002296
14:43:25.564	1.002349
14:43:25.964	0.989291
14:43:26.264	0.983223
14:43:26.664	0.988881
14:43:26.964	1.006168
14:43:27.264	1.025306
14:43:27.664	1.034614
14:43:27.964	1.026394
14:43:28.364	1.057918
14:43:28.664	1.080185
14:43:28.964	1.090295
14:43:29.364	1.090672
14:43:29.664	1.068021
14:43:30.064	1.065921
14:43:30.363	1.074141
14:43:30.764	1.070937
14:43:31.064	1.048075
14:43:31.464	1.061228
14:43:31.764	1.066366
14:43:32.164	1.063987
14:43:32.464	1.042821
14:43:32.763	1.050798
14:43:33.164	1.082202
14:43:33.464	1.102011
14:43:33.864	1.076131
14:43:34.164	1.075414
14:43:34.564	1.072545
14:43:34.864	1.087368
14:43:35.164	1.084120
14:43:35.564	1.064495
14:43:35.864	1.072625
14:43:36.263	1.084990
14:43:36.563	1.088249
14:43:36.864	1.093542
14:43:37.264	1.063282
14:43:37.564	1.027526
14:43:37.865	1.012017
14:43:38.263	1.011875
14:43:38.564	1.009580
14:43:38.965	1.010624
14:43:39.264	1.007926
14:43:39.664	1.002632
14:43:39.964	1.032387
14:43:40.264	1.041767
14:43:40.664	1.039134
14:43:40.965	1.036037
14:43:41.364	1.028427
14:43:41.664	1.026525
14:43:41.964	0.995902
14:43:42.364	1.013285
14:43:42.664	1.017906
14:43:42.964	0.995261
14:43:43.364	0.992188
14:43:43.664	1.007626
14:43:44.064	1.018572
14:43:44.364	1.004907
14:43:44.764	1.010459
14:43:45.064	0.983502
14:43:45.465	0.936202
14:43:45.764	0.941451
14:43:46.063	0.947750
14:43:46.464	0.952086
14:43:46.764	0.951172
14:43:47.064	0.949197
14:43:47.464	0.929039
14:43:47.764	0.926700
14:43:48.165	0.975655
14:43:48.464	0.980122
14:43:48.764	0.969190
14:43:49.164	0.950807
14:43:49.464	0.936798
14:43:49.764	0.938489
14:43:50.164	0.954049
14:43:50.464	0.941994
14:43:50.864	0.975122
14:43:51.164	0.987297
14:43:51.564	0.988498
14:43:51.863	1.028538
14:43:52.263	1.003389
14:43:52.565	0.991296
14:43:52.864	0.998168
14:43:53.264	1.013254
14:43:53.564	1.039088
14:43:53.864	1.041993
14:43:54.264	1.051080
14:43:54.564	1.065170
14:43:54.964	1.066145
14:43:55.264	1.069163
14:43:55.664	1.081153
14:43:55.964	1.111932
14:43:56.364	1.150554
14:43:56.664	1.157514
14:43:56.963	1.159991
14:43:57.364	1.154420
14:43:57.664	1.157650
14:43:58.065	1.178787
14:43:58.364	1.159361
14:43:58.763	1.165807
14:43:59.063	1.169048
14:43:59.364	1.146130
14:43:59.764	1.138783
14:44:00.064	1.139231
14:44:00.364	1.141074
14:44:00.764	1.144753
14:44:01.064	1.130793
14:44:01.364	1.128832
14:44:01.764	1.104126
14:44:02.064	1.080115
14:44:02.464	1.058118
14:44:02.764	1.048140
14:44:03.063	1.059708
14:44:03.464	1.066717
14:44:03.764	1.063222
14:44:04.064	1.049196
14:44:04.464	1.033797
14:44:04.764	1.032829
14:44:05.164	1.025866
14:44:05.464	1.011814
14:44:05.864	1.004822
14:44:06.163	0.999650
14:44:06.464	1.010266
14:44:06.864	1.015008
14:44:07.164	1.004667
14:44:07.564	0.998525
14:44:07.864	0.980202
14:44:08.164	0.947094
14:44:08.563	0.937614
14:44:08.864	0.954024
14:44:09.164	0.993424
14:44:09.564	0.995357
14:44:09.864	1.000324
14:44:10.164	1.025714
14:44:10.565	1.016389
14:44:10.864	1.019295
14:44:11.163	1.050422
14:44:11.563	1.039594
14:44:11.864	1.040208
14:44:12.263	1.062732
14:44:12.564	1.079611
14:44:12.863	1.079748
14:44:13.264	1.101696
14:44:13.564	1.148016
14:44:13.863	1.170262
14:44:14.264	1.202916
14:44:14.564	1.195019
14:44:14.864	1.178453
14:44:15.264	1.183860
14:44:15.564	1.204538
14:44:15.964	1.210975
14:44:16.264	1.241933
14:44:16.564	1.248317
14:44:16.964	1.254596
14:44:17.264	1.263558
14:44:17.663	1.278600
14:44:17.964	1.299490
14:44:18.264	1.332224
14:44:18.664	1.339694
14:44:18.965	1.331569
14:44:19.364	1.313420
14:44:19.664	1.286684
14:44:20.064	1.290556
14:44:20.364	1.294282
14:44:20.764	1.329683
14:44:21.064	1.356850
14:44:21.364	1.353120
14:44:21.764	1.356370
14:44:22.064	1.342250
14:44:22.364	1.342848
14:44:22.764	1.334898
14:44:23.064	1.326132
14:44:23.464	1.347717
14:44:23.763	1.344250
14:44:24.064	1.353692
14:44:24.464	1.375586
14:44:24.763	1.385241
14:44:25.163	1.372352
14:44:25.464	1.382320
14:44:25.863	1.396965
14:44:26.164	1.378855
14:44:26.564	1.430572
14:44:26.864	1.436449
14:44:27.164	1.403476
14:44:27.564	1.399973
14:44:27.864	1.383753
14:44:28.164	1.373503
14:44:28.565	1.331903
14:44:28.864	1.326492
14:44:29.164	1.291677
14:44:29.564	1.303322
14:44:29.865	1.294077
14:44:30.265	1.276288
14:44:30.564	1.253073
14:44:30.964	1.234906
14:44:31.264	1.250457
14:44:31.663	1.263305
14:44:31.964	1.237915
14:44:32.264	1.217657
14:44:32.664	1.204364
14:44:32.964	1.190090
14:44:33.364	1.166245
14:44:33.664	1.146775
14:44:34.064	1.137096
14:44:34.364	1.126797
14:44:34.664	1.115121
14:44:35.064	1.095841
14:44:35.364	1.090193
14:44:35.764	1.086086
14:44:36.064	1.090833
14:44:36.364	1.093928
14:44:36.764	1.097119
14:44:37.064	1.101990
14:44:37.464	1.085324
14:44:37.764	1.071256
14:44:38.064	1.075700
14:44:38.464	1.063785
14:44:38.764	1.078479
14:44:39.164	1.078759
14:44:39.463	1.074480
14:44:39.864	1.065293
14:44:40.164	1.052033
14:44:40.564	1.060814
14:44:40.864	1.055381
14:44:41.164	1.041821
14:44:41.564	1.040438
14:44:41.864	1.044035
14:44:42.164	1.034002
14:44:42.564	1.020758
14:44:42.864	1.026615
14:44:43.164	1.019226
14:44:43.564	1.012806
14:44:43.864	1.005554
14:44:44.264	0.993409
14:44:44.565	0.969456
14:44:44.964	0.947201
14:44:45.264	0.949926
14:44:45.564	0.944314
14:44:45.964	0.932683
14:44:46.264	0.931051
14:44:46.664	0.917181
14:44:46.964	0.900926
14:44:47.365	0.891815
14:44:47.664	0.911525
14:44:48.065	0.932264
14:44:48.364	0.913641
14:44:48.764	0.888750
14:44:49.064	0.890774
14:44:49.365	0.877129
14:44:49.764	0.848599
14:44:50.064	0.861796
14:44:50.364	0.874142
14:44:50.764	0.887848
14:44:51.064	0.865016
14:44:51.464	0.837250
14:44:51.764	0.828413
14:44:52.165	0.833362
14:44:52.464	0.848528
14:44:52.864	0.862369
14:44:53.164	0.874050
14:44:53.465	0.898216
14:44:53.864	0.909853
14:44:54.164	0.928449
14:44:54.564	0.941832
14:44:54.964	0.949819
14:44:55.264	0.946891
14:44:55.564	0.943466
14:44:55.965	0.958883
14:44:56.264	0.945335
14:44:56.664	0.941028
14:44:56.964	0.968791
14:44:57.264	0.970028
14:44:57.664	0.948942
14:44:57.965	0.968184
14:44:58.365	0.964819
14:44:58.665	0.969324
14:44:58.964	0.962484
14:44:59.364	0.947666
14:44:59.664	0.942729
14:45:00.064	0.962226
14:45:00.365	0.968229
14:45:00.665	0.957719
14:45:01.065	0.911526
14:45:01.364	0.919649
14:45:01.764	0.909675
14:45:02.064	0.908741
14:45:02.365	0.902631
14:45:02.765	0.889346
14:45:03.064	0.884220
14:45:03.364	0.880931
14:45:03.765	0.885841
14:45:04.065	0.869238
14:45:04.364	0.854906
14:45:04.764	0.808008
14:45:05.064	0.836124
14:45:05.464	0.816583
14:45:05.764	0.816067
14:45:06.165	0.830000
14:45:06.464	0.828597
14:45:06.765	0.818968
14:45:07.164	0.805326
14:45:07.464	0.806729
14:45:07.765	0.819247
14:45:08.164	0.809116
14:45:08.465	0.797812
14:45:08.865	0.799033
14:45:09.164	0.798122
14:45:09.465	0.771487
14:45:09.864	0.794856
14:45:10.164	0.816577
14:45:10.465	0.831111
14:45:10.864	0.822146
14:45:11.165	0.802725
14:45:11.465	0.812953
14:45:11.865	0.816886
14:45:12.164	0.791141
14:45:12.565	0.789430
14:45:12.864	0.783824
14:45:13.264	0.784680
14:45:13.564	0.802190
14:45:13.964	0.783473
14:45:14.265	0.788992
14:45:14.565	0.806130
14:45:14.965	0.809166
14:45:15.265	0.813607
14:45:15.665	0.829858
14:45:15.964	0.805790
14:45:16.265	0.812702
14:45:16.664	0.830555
14:45:16.965	0.838864
14:45:17.264	0.831424
14:45:17.664	0.821374
14:45:17.964	0.802804
14:45:18.264	0.817340
14:45:18.665	0.812013
14:45:18.965	0.810802
14:45:19.365	0.820113
14:45:19.664	0.824242
14:45:19.965	0.822460
14:45:20.364	0.819579
14:45:20.665	0.819795
14:45:20.964	0.823502
14:45:21.365	0.844151
14:45:21.664	0.852666
14:45:22.065	0.840179
14:45:22.364	0.836416
14:45:22.764	0.819646
14:45:23.064	0.824854
14:45:23.364	0.829334
14:45:23.765	0.817808
14:45:24.065	0.819555
14:45:24.364	0.820845
14:45:24.765	0.813467
14:45:25.064	0.827869
14:45:25.364	0.818591
14:45:25.765	0.814349
14:45:26.065	0.811070
14:45:26.464	0.827338
14:45:26.764	0.826793
14:45:27.164	0.828296
14:45:27.465	0.818447
14:45:27.864	0.811714
14:45:28.164	0.833179
14:45:28.465	0.833966
14:45:28.865	0.852483
14:45:29.165	0.826394
14:45:29.565	0.811550
14:45:29.864	0.795635
14:45:30.264	0.831037
14:45:30.564	0.834797
14:45:30.864	0.855267
14:45:31.265	0.882327
14:45:31.565	0.876013
14:45:31.965	0.852174
14:45:32.264	0.849024
14:45:32.564	0.831846
14:45:32.965	0.843356
14:45:33.265	0.850712
14:45:33.665	0.857637
14:45:33.964	0.869164
14:45:34.265	0.857537
14:45:34.665	0.828875
14:45:34.965	0.816281
14:45:35.365	0.809058
14:45:35.664	0.799037
14:45:35.965	0.782631
14:45:36.364	0.776957
14:45:36.665	0.809192
14:45:37.064	0.795915
14:45:37.364	0.792243