Chart Recorder Data File Fri, Sep 20, 2024 3:36 PM
Time (s)	CH1 (V)  
15:26:24.578	0.249626
15:26:25.377	0.262095
15:26:25.678	0.249208
15:26:26.078	0.232501
15:26:26.377	0.242186
15:26:26.778	0.254219
15:26:27.078	0.243025
15:26:27.478	0.262579
15:26:27.777	0.238575
15:26:28.178	0.240480
15:26:28.477	0.242153
15:26:28.778	0.243923
15:26:29.177	0.253143
15:26:29.478	0.258728
15:26:29.778	0.250696
15:26:30.177	0.260372
15:26:30.478	0.283640
15:26:30.777	0.288757
15:26:31.178	0.270620
15:26:31.478	0.277747
15:26:31.778	0.280948
15:26:32.177	0.299197
15:26:32.478	0.284876
15:26:32.777	0.269540
15:26:33.178	0.265102
15:26:33.477	0.262892
15:26:33.878	0.258982
15:26:34.178	0.272876
15:26:34.578	0.260111
15:26:34.877	0.242406
15:26:35.277	0.231446
15:26:35.578	0.241309
15:26:35.878	0.251396
15:26:36.278	0.260553
15:26:36.578	0.272072
15:26:36.878	0.267066
15:26:37.277	0.261871
15:26:37.578	0.264844
15:26:37.878	0.251489
15:26:38.278	0.264403
15:26:38.578	0.269763
15:26:38.878	0.267166
15:26:39.277	0.254037
15:26:39.578	0.236672
15:26:39.878	0.227814
15:26:40.277	0.234703
15:26:40.577	0.238284
15:26:40.878	0.239016
15:26:41.278	0.225973
15:26:41.578	0.222911
15:26:41.878	0.207957
15:26:42.278	0.205726
15:26:42.578	0.228997
15:26:42.877	0.224230
15:26:43.278	0.229455
15:26:43.578	0.234633
15:26:43.978	0.251365
15:26:44.277	0.262419
15:26:44.678	0.278077
15:26:44.979	0.267583
15:26:45.379	0.264458
15:26:45.678	0.243585
15:26:46.077	0.233073
15:26:46.379	0.211082
15:26:46.678	0.207126
15:26:47.078	0.213158
15:26:47.379	0.212586
15:26:47.777	0.217647
15:26:48.077	0.233588
15:26:48.477	0.249680
15:26:48.778	0.255638
15:26:49.178	0.245474
15:26:49.478	0.248160
15:26:49.777	0.251033
15:26:50.178	0.241497
15:26:50.478	0.249965
15:26:50.778	0.242253
15:26:51.178	0.232649
15:26:51.478	0.242170
15:26:51.778	0.277275
15:26:52.178	0.274338
15:26:52.478	0.272556
15:26:52.778	0.281189
15:26:53.177	0.260673
15:26:53.478	0.254079
15:26:53.777	0.276268
15:26:54.178	0.257450
15:26:54.478	0.262152
15:26:54.878	0.260795
15:26:55.177	0.256694
15:26:55.577	0.268809
15:26:55.878	0.276399
15:26:56.278	0.276227
15:26:56.578	0.238811
15:26:56.877	0.228523
15:26:57.277	0.240148
15:26:57.578	0.259042
15:26:57.878	0.245975
15:26:58.278	0.256386
15:26:58.578	0.234430
15:26:58.878	0.224477
15:26:59.278	0.229478
15:26:59.578	0.246730
15:26:59.878	0.248920
15:27:00.278	0.247163
15:27:00.577	0.264868
15:27:00.978	0.297087
15:27:01.278	0.247330
15:27:01.678	0.253366
15:27:01.977	0.256904
15:27:02.378	0.247052
15:27:02.677	0.249919
15:27:03.078	0.238578
15:27:03.378	0.241705
15:27:03.678	0.226589
15:27:04.078	0.223454
15:27:04.478	0.223644
15:27:04.778	0.236490
15:27:05.178	0.234649
15:27:05.478	0.225264
15:27:05.778	0.217319
15:27:06.178	0.225089
15:27:06.478	0.223144
15:27:06.778	0.231862
15:27:07.177	0.235100
15:27:07.477	0.233412
15:27:07.778	0.235852
15:27:08.178	0.242470
15:27:08.477	0.242851
15:27:08.878	0.246667
15:27:09.178	0.236141
15:27:09.578	0.231599
15:27:09.878	0.244732
15:27:10.278	0.239669
15:27:10.578	0.251935
15:27:10.878	0.256490
15:27:11.278	0.243231
15:27:11.578	0.238713
15:27:11.878	0.246142
15:27:12.278	0.244527
15:27:12.578	0.231742
15:27:12.878	0.230383
15:27:13.278	0.246234
15:27:13.578	0.254668
15:27:13.878	0.257571
15:27:14.278	0.273050
15:27:14.578	0.253243
15:27:14.878	0.240544
15:27:15.278	0.263227
15:27:15.578	0.252881
15:27:15.978	0.242444
15:27:16.278	0.235468
15:27:16.679	0.229622
15:27:16.978	0.221619
15:27:17.378	0.230281
15:27:17.678	0.242117
15:27:17.978	0.250441
15:27:18.378	0.249785
15:27:18.678	0.268723
15:27:18.978	0.260030
15:27:19.378	0.265902
15:27:19.678	0.253170
15:27:20.078	0.249343
15:27:20.378	0.247604
15:27:20.778	0.246090
15:27:21.078	0.240877
15:27:21.478	0.256411
15:27:21.778	0.258456
15:27:22.078	0.267467
15:27:22.477	0.255686
15:27:22.778	0.256515
15:27:23.078	0.264977
15:27:23.478	0.239342
15:27:23.778	0.234213
15:27:24.178	0.238830
15:27:24.478	0.232970
15:27:24.778	0.224990
15:27:25.177	0.226571
15:27:25.478	0.232317
15:27:25.777	0.231803
15:27:26.178	0.236454
15:27:26.478	0.241984
15:27:26.778	0.242828
15:27:27.178	0.221397
15:27:27.478	0.234839
15:27:27.778	0.229167
15:27:28.178	0.255541
15:27:28.478	0.271256
15:27:28.778	0.269437
15:27:29.178	0.255739
15:27:29.477	0.257390
15:27:29.878	0.250324
15:27:30.178	0.261846
15:27:30.578	0.271469
15:27:30.878	0.275037
15:27:31.178	0.278282
15:27:31.578	0.254883
15:27:31.878	0.225661
15:27:32.177	0.211755
15:27:32.578	0.218320
15:27:32.878	0.243065
15:27:33.278	0.248867
15:27:33.578	0.257393
15:27:33.978	0.259836
15:27:34.277	0.253422
15:27:34.678	0.269546
15:27:34.978	0.270565
15:27:35.378	0.264049
15:27:35.678	0.273015
15:27:35.978	0.281049
15:27:36.378	0.283246
15:27:36.678	0.278868
15:27:36.977	0.283048
15:27:37.378	0.275797
15:27:37.678	0.268646
15:27:37.978	0.277608
15:27:38.378	0.271187
15:27:38.679	0.262096
15:27:38.979	0.255478
15:27:39.378	0.247294
15:27:39.678	0.256011
15:27:39.978	0.242178
15:27:40.378	0.241157
15:27:40.677	0.256807
15:27:40.978	0.246780
15:27:41.378	0.241626
15:27:41.678	0.244796
15:27:41.978	0.260781
15:27:42.378	0.260129
15:27:42.678	0.268236
15:27:42.978	0.248755
15:27:43.378	0.249359
15:27:43.678	0.248206
15:27:44.078	0.230679
15:27:44.378	0.232103
15:27:44.778	0.232469
15:27:45.078	0.242851
15:27:45.478	0.244031
15:27:45.778	0.243727
15:27:46.077	0.240347
15:27:46.478	0.233116
15:27:46.778	0.228998
15:27:47.178	0.224800
15:27:47.478	0.226323
15:27:47.878	0.249976
15:27:48.178	0.269187
15:27:48.578	0.270857
15:27:48.878	0.255391
15:27:49.179	0.244226
15:27:49.578	0.239885
15:27:49.878	0.223783
15:27:50.179	0.226649
15:27:50.578	0.235749
15:27:50.878	0.253521
15:27:51.278	0.252349
15:27:51.578	0.243435
15:27:51.978	0.257460
15:27:52.278	0.254711
15:27:52.677	0.279573
15:27:52.978	0.279588
15:27:53.278	0.269715
15:27:53.678	0.262678
15:27:53.978	0.259669
15:27:54.378	0.258610
15:27:54.678	0.239795
15:27:54.978	0.240731
15:27:55.379	0.239627
15:27:55.678	0.234922
15:27:55.978	0.233337
15:27:56.378	0.231422
15:27:56.678	0.226645
15:27:57.078	0.214620
15:27:57.378	0.223074
15:27:57.778	0.232177
15:27:58.078	0.232508
15:27:58.378	0.246856
15:27:58.778	0.234355
15:27:59.078	0.225879
15:27:59.379	0.221455
15:27:59.778	0.219463
15:28:00.078	0.222327
15:28:00.378	0.224321
15:28:00.778	0.257928
15:28:01.078	0.253459
15:28:01.479	0.248089
15:28:01.778	0.259300
15:28:02.079	0.261407
15:28:02.478	0.269100
15:28:02.778	0.266688
15:28:03.078	0.264971
15:28:03.479	0.258490
15:28:03.779	0.263741
15:28:04.078	0.256775
15:28:04.478	0.248842
15:28:04.778	0.262494
15:28:05.179	0.254706
15:28:05.478	0.250374
15:28:05.878	0.241424
15:28:06.178	0.238279
15:28:06.578	0.240139
15:28:06.878	0.264841
15:28:07.178	0.270590
15:28:07.578	0.249911
15:28:07.878	0.233840
15:28:08.178	0.230230
15:28:08.578	0.223273
15:28:08.878	0.233958
15:28:09.278	0.220477
15:28:09.578	0.215179
15:28:09.978	0.204113
15:28:10.278	0.220821
15:28:10.679	0.223235
15:28:10.978	0.233778
15:28:11.378	0.249745
15:28:11.678	0.267114
15:28:12.079	0.259744
15:28:12.379	0.257989
15:28:12.779	0.260938
15:28:13.078	0.258770
15:28:13.478	0.262466
15:28:13.778	0.245682
15:28:14.078	0.238758
15:28:14.479	0.240611
15:28:14.778	0.251933
15:28:15.078	0.258519
15:28:15.478	0.245146
15:28:15.779	0.252665
15:28:16.078	0.256336
15:28:16.478	0.263060
15:28:16.778	0.242694
15:28:17.079	0.233949
15:28:17.478	0.244089
15:28:17.778	0.231575
15:28:18.178	0.216569
15:28:18.478	0.228538
15:28:18.878	0.236363
15:28:19.179	0.237440
15:28:19.478	0.241435
15:28:19.879	0.232838
15:28:20.178	0.215337
15:28:20.579	0.203815
15:28:20.879	0.221297
15:28:21.178	0.225664
15:28:21.578	0.232977
15:28:21.878	0.256759
15:28:22.178	0.256699
15:28:22.578	0.253119
15:28:22.878	0.242262
15:28:23.178	0.241309
15:28:23.579	0.245786
15:28:23.879	0.247281
15:28:24.278	0.259654
15:28:24.578	0.263396
15:28:24.979	0.254464
15:28:25.279	0.268415
15:28:25.678	0.265302
15:28:25.978	0.277422
15:28:26.379	0.263039
15:28:26.678	0.254233
15:28:27.079	0.241639
15:28:27.378	0.249563
15:28:27.778	0.245870
15:28:28.078	0.251299
15:28:28.379	0.255492
15:28:28.779	0.260969
15:28:29.078	0.263672
15:28:29.378	0.267860
15:28:29.778	0.253951
15:28:30.079	0.244671
15:28:30.379	0.243323
15:28:30.778	0.252291
15:28:31.078	0.249631
15:28:31.379	0.266290
15:28:31.778	0.275852
15:28:32.078	0.278365
15:28:32.478	0.263353
15:28:32.778	0.245461
15:28:33.179	0.253725
15:28:33.479	0.261017
15:28:33.779	0.270085
15:28:34.179	0.269924
15:28:34.479	0.270439
15:28:34.878	0.274870
15:28:35.178	0.269799
15:28:35.479	0.260534
15:28:35.879	0.263435
15:28:36.179	0.278063
15:28:36.578	0.278936
15:28:36.878	0.301936
15:28:37.278	0.306533
15:28:37.579	0.319520
15:28:37.979	0.310631
15:28:38.278	0.296516
15:28:38.578	0.292096
15:28:38.978	0.275120
15:28:39.278	0.269549
15:28:39.678	0.272044
15:28:39.978	0.273164
15:28:40.379	0.254739
15:28:40.679	0.252585
15:28:41.079	0.248727
15:28:41.378	0.251239
15:28:41.779	0.261605
15:28:42.079	0.285242
15:28:42.479	0.284827
15:28:42.778	0.292260
15:28:43.179	0.280540
15:28:43.479	0.285207
15:28:43.879	0.286154
15:28:44.179	0.295831
15:28:44.478	0.300449
15:28:44.878	0.314311
15:28:45.179	0.302480
15:28:45.478	0.284210
15:28:45.878	0.283369
15:28:46.178	0.297569
15:28:46.479	0.302959
15:28:46.879	0.303359
15:28:47.179	0.325740
15:28:47.578	0.322808
15:28:47.879	0.320437
15:28:48.279	0.317790
15:28:48.578	0.328148
15:28:48.979	0.334121
15:28:49.279	0.342385
15:28:49.678	0.339977
15:28:49.979	0.339574
15:28:50.279	0.341303
15:28:50.679	0.333455
15:28:50.979	0.315023
15:28:51.279	0.319829
15:28:51.679	0.319483
15:28:51.978	0.337621
15:28:52.279	0.305292
15:28:52.679	0.321541
15:28:52.978	0.312014
15:28:53.378	0.296671
15:28:53.679	0.319132
15:28:54.079	0.331952
15:28:54.378	0.338078
15:28:54.779	0.393709
15:28:55.079	0.407835
15:28:55.479	0.419132
15:28:55.779	0.425614
15:28:56.078	0.432718
15:28:56.479	0.439010
15:28:56.779	0.445591
15:28:57.179	0.460333
15:28:57.479	0.471236
15:28:57.878	0.504760
15:28:58.179	0.534372
15:28:58.478	0.569333
15:28:58.879	0.593563
15:28:59.179	0.631509
15:28:59.480	0.656094
15:28:59.879	0.669390
15:29:00.178	0.673149
15:29:00.479	0.698820
15:29:00.878	0.742318
15:29:01.179	0.759927
15:29:01.579	0.778476
15:29:01.879	0.791096
15:29:02.278	0.760952
15:29:02.579	0.765081
15:29:02.979	0.761651
15:29:03.279	0.762162
15:29:03.678	0.773946
15:29:03.979	0.763555
15:29:04.379	0.739648
15:29:04.679	0.730995
15:29:05.079	0.720391
15:29:05.378	0.696335
15:29:05.679	0.699977
15:29:06.079	0.700831
15:29:06.379	0.695103
15:29:06.779	0.693403
15:29:07.079	0.664224
15:29:07.479	0.662284
15:29:07.778	0.645020
15:29:08.178	0.621822
15:29:08.478	0.603057
15:29:08.879	0.591967
15:29:09.179	0.586627
15:29:09.579	0.562456
15:29:09.879	0.537138
15:29:10.279	0.527219
15:29:10.580	0.529517
15:29:10.878	0.537835
15:29:11.279	0.508841
15:29:11.578	0.500594
15:29:11.978	0.492233
15:29:12.279	0.484335
15:29:12.578	0.468471
15:29:12.979	0.462641
15:29:13.279	0.478694
15:29:13.678	0.475378
15:29:13.979	0.479158
15:29:14.379	0.493330
15:29:14.679	0.491581
15:29:15.079	0.474728
15:29:15.378	0.470659
15:29:15.779	0.455487
15:29:16.079	0.447882
15:29:16.479	0.454142
15:29:16.778	0.457400
15:29:17.178	0.433277
15:29:17.478	0.430720
15:29:17.778	0.450766
15:29:18.179	0.460413
15:29:18.479	0.459795
15:29:18.779	0.450134
15:29:19.178	0.467095
15:29:19.479	0.465377
15:29:19.779	0.470946
15:29:20.179	0.466294
15:29:20.479	0.471020
15:29:20.778	0.481906
15:29:21.179	0.481449
15:29:21.478	0.469432
15:29:21.879	0.463476
15:29:22.179	0.481685
15:29:22.579	0.483700
15:29:22.880	0.495057
15:29:23.279	0.489575
15:29:23.579	0.518020
15:29:23.979	0.525071
15:29:24.279	0.540741
15:29:24.679	0.561953
15:29:24.978	0.557785
15:29:25.378	0.557332
15:29:25.679	0.548371
15:29:25.979	0.542956
15:29:26.379	0.574402
15:29:26.679	0.574408
15:29:27.078	0.558648
15:29:27.378	0.566013
15:29:27.679	0.570930
15:29:28.078	0.543829
15:29:28.379	0.519935
15:29:28.779	0.496190
15:29:29.079	0.479852
15:29:29.479	0.486281
15:29:29.779	0.486134
15:29:30.178	0.488751
15:29:30.479	0.499228
15:29:30.779	0.436329
15:29:31.179	0.428675
15:29:31.479	0.459511
15:29:31.779	0.476039
15:29:32.179	0.461030
15:29:32.479	0.445289
15:29:32.778	0.428464
15:29:33.178	0.448332
15:29:33.479	0.452242
15:29:33.779	0.461878
15:29:34.178	0.456991
15:29:34.479	0.449309
15:29:34.779	0.436949
15:29:35.178	0.419240
15:29:35.478	0.403333
15:29:35.779	0.404195
15:29:36.178	0.363626
15:29:36.479	0.354320
15:29:36.879	0.390197
15:29:37.178	0.383742
15:29:37.578	0.391505
15:29:37.879	0.382217
15:29:38.279	0.373990
15:29:38.579	0.362484
15:29:38.879	0.344522
15:29:39.280	0.368279
15:29:39.578	0.366057
15:29:39.879	0.342192
15:29:40.279	0.347380
15:29:40.579	0.336282
15:29:40.879	0.333594
15:29:41.279	0.331925
15:29:41.578	0.335011
15:29:41.879	0.320709
15:29:42.279	0.315200
15:29:42.578	0.309829
15:29:42.879	0.294347
15:29:43.279	0.293287
15:29:43.579	0.297896
15:29:43.879	0.300538
15:29:44.278	0.288909
15:29:44.579	0.283618
15:29:44.979	0.291152
15:29:45.279	0.284941
15:29:45.678	0.276213
15:29:45.978	0.274554
15:29:46.379	0.298293
15:29:46.679	0.286342
15:29:46.979	0.274555
15:29:47.378	0.282077
15:29:47.679	0.286090
15:29:47.979	0.259696
15:29:48.378	0.243878
15:29:48.678	0.245170
15:29:48.979	0.262320
15:29:49.379	0.273621
15:29:49.680	0.278410
15:29:49.979	0.278879
15:29:50.379	0.262288
15:29:50.679	0.261826
15:29:51.079	0.277826
15:29:51.379	0.279542
15:29:51.779	0.299140
15:29:52.079	0.302204
15:29:52.479	0.315339
15:29:52.779	0.328238
15:29:53.079	0.302272
15:29:53.479	0.299093
15:29:53.779	0.308987
15:29:54.179	0.299628
15:29:54.479	0.298232
15:29:54.779	0.301122
15:29:55.179	0.293274
15:29:55.479	0.291527
15:29:55.779	0.297207
15:29:56.179	0.296358
15:29:56.479	0.307723
15:29:56.780	0.305166
15:29:57.178	0.300197
15:29:57.479	0.296792
15:29:57.879	0.295143
15:29:58.179	0.305301
15:29:58.579	0.280854
15:29:58.879	0.270695
15:29:59.279	0.262320
15:29:59.578	0.259980
15:29:59.878	0.269590
15:30:00.279	0.277007
15:30:00.579	0.274420
15:30:00.879	0.277101
15:30:01.278	0.281930
15:30:01.579	0.272462
15:30:01.879	0.269107
15:30:02.279	0.264150
15:30:02.579	0.256383
15:30:02.878	0.254253
15:30:03.279	0.257627
15:30:03.579	0.260014
15:30:03.979	0.256657
15:30:04.379	0.254390
15:30:04.679	0.257668
15:30:05.078	0.259694
15:30:05.379	0.267712
15:30:05.679	0.265707
15:30:06.080	0.266047
15:30:06.379	0.263232
15:30:06.779	0.270194
15:30:07.079	0.260846
15:30:07.479	0.285008
15:30:07.779	0.294108
15:30:08.079	0.285371
15:30:08.479	0.255189
15:30:08.779	0.243056
15:30:09.079	0.254258
15:30:09.479	0.255204
15:30:09.779	0.268372
15:30:10.079	0.268461
15:30:10.479	0.281351
15:30:10.779	0.282642
15:30:11.179	0.271420
15:30:11.479	0.269209
15:30:11.879	0.264479
15:30:12.179	0.270729
15:30:12.579	0.271133
15:30:12.879	0.282986
15:30:13.279	0.292770
15:30:13.579	0.286157
15:30:13.879	0.293913
15:30:14.278	0.301803
15:30:14.579	0.300769
15:30:14.880	0.315762
15:30:15.278	0.324873
15:30:15.579	0.320858
15:30:15.879	0.321985
15:30:16.279	0.312263
15:30:16.578	0.310546
15:30:16.978	0.321070
15:30:17.279	0.316028
15:30:17.679	0.318241
15:30:17.979	0.324625
15:30:18.379	0.316519
15:30:18.678	0.333010
15:30:19.079	0.315883
15:30:19.379	0.309994
15:30:19.780	0.320462
15:30:20.079	0.326886
15:30:20.479	0.313468
15:30:20.778	0.265872
15:30:21.079	0.256334
15:30:21.479	0.264989
15:30:21.779	0.303592
15:30:22.179	0.296210
15:30:22.479	0.277407
15:30:22.879	0.275373
15:30:23.179	0.279843
15:30:23.579	0.282784
15:30:23.879	0.275735
15:30:24.179	0.284677
15:30:24.579	0.306365
15:30:24.879	0.306116
15:30:25.279	0.285350
15:30:25.578	0.258143
15:30:25.979	0.255014
15:30:26.278	0.255459
15:30:26.679	0.263431
15:30:26.979	0.277877
15:30:27.378	0.290280
15:30:27.679	0.296017
15:30:27.979	0.299443
15:30:28.379	0.300476
15:30:28.679	0.305678
15:30:28.979	0.310621
15:30:29.379	0.333836
15:30:29.679	0.316239
15:30:30.078	0.315130
15:30:30.378	0.304077
15:30:30.779	0.278615
15:30:31.078	0.278189
15:30:31.479	0.265227
15:30:31.778	0.267598
15:30:32.079	0.283529
15:30:32.479	0.268360
15:30:32.879	0.277792
15:30:33.179	0.288226
15:30:33.579	0.281046
15:30:33.879	0.274600
15:30:34.279	0.288825
15:30:34.579	0.292333
15:30:34.979	0.305259
15:30:35.279	0.304402
15:30:35.579	0.293673
15:30:35.979	0.282483
15:30:36.279	0.285130
15:30:36.679	0.262691
15:30:36.978	0.284535
15:30:37.279	0.280970
15:30:37.679	0.290275
15:30:37.979	0.294338
15:30:38.379	0.274338
15:30:38.679	0.268677
15:30:38.979	0.279252
15:30:39.379	0.273095
15:30:39.678	0.262076
15:30:40.079	0.267140
15:30:40.379	0.271656
15:30:40.780	0.275389
15:30:41.079	0.290811
15:30:41.480	0.298279
15:30:41.779	0.289664
15:30:42.079	0.283535
15:30:42.479	0.291916
15:30:42.779	0.279903
15:30:43.078	0.258822
15:30:43.479	0.259582
15:30:43.779	0.261302
15:30:44.179	0.263600
15:30:44.478	0.260679
15:30:44.779	0.255125
15:30:45.179	0.253850
15:30:45.479	0.272715
15:30:45.879	0.289477
15:30:46.179	0.294699
15:30:46.579	0.292092
15:30:46.879	0.299907
15:30:47.278	0.296505
15:30:47.579	0.298774
15:30:47.979	0.304512
15:30:48.280	0.303676
15:30:48.680	0.298769
15:30:48.979	0.291871
15:30:49.279	0.287327
15:30:49.679	0.281019
15:30:49.979	0.281879
15:30:50.279	0.287602
15:30:50.680	0.280168
15:30:50.979	0.268157
15:30:51.379	0.269404
15:30:51.679	0.261702
15:30:52.079	0.260406
15:30:52.379	0.263428
15:30:52.779	0.246891
15:30:53.079	0.254496
15:30:53.379	0.248766
15:30:53.779	0.278148
15:30:54.079	0.298887
15:30:54.479	0.283535
15:30:54.778	0.286763
15:30:55.079	0.297844
15:30:55.479	0.305505
15:30:55.779	0.294193
15:30:56.079	0.299589
15:30:56.480	0.287497
15:30:56.779	0.277578
15:30:57.079	0.284800
15:30:57.479	0.289542
15:30:57.779	0.293918
15:30:58.079	0.285828
15:30:58.479	0.285804
15:30:58.780	0.288198
15:30:59.179	0.297548
15:30:59.479	0.311225
15:30:59.779	0.309895
15:31:00.179	0.300672
15:31:00.479	0.313893
15:31:00.879	0.310771
15:31:01.179	0.309892
15:31:01.579	0.297570
15:31:01.879	0.290050
15:31:02.179	0.290735
15:31:02.579	0.270147
15:31:02.879	0.274305
15:31:03.179	0.276841
15:31:03.579	0.276196
15:31:03.879	0.284421
15:31:04.179	0.327073
15:31:04.579	0.324552
15:31:04.879	0.361080
15:31:05.279	0.405779
15:31:05.580	0.415803
15:31:05.979	0.448107
15:31:06.279	0.464334
15:31:06.579	0.522983
15:31:06.979	0.566305
15:31:07.279	0.598560
15:31:07.579	0.667661
15:31:07.980	0.770119
15:31:08.279	0.803860
15:31:08.679	0.853076
15:31:08.979	0.911720
15:31:09.279	0.945554
15:31:09.679	1.014449
15:31:09.979	1.060949
15:31:10.280	1.073421
15:31:10.679	1.195536
15:31:10.979	1.270963
15:31:11.279	1.284241
15:31:11.679	1.329654
15:31:11.979	1.376751
15:31:12.380	1.384594
15:31:12.679	1.388549
15:31:13.079	1.362233
15:31:13.380	1.333262
15:31:13.680	1.305525
15:31:14.079	1.256560
15:31:14.379	1.251041
15:31:14.679	1.190623
15:31:15.079	1.115971
15:31:15.379	1.084225
15:31:15.779	0.995263
15:31:16.079	0.935866
15:31:16.480	0.837906
15:31:16.779	0.797765
15:31:17.079	0.699998
15:31:17.480	0.616355
15:31:17.779	0.582546
15:31:18.180	0.528428
15:31:18.479	0.504159
15:31:18.880	0.466168
15:31:19.179	0.454666
15:31:19.480	0.444186
15:31:19.879	0.404442
15:31:20.180	0.393429
15:31:20.479	0.390184
15:31:20.881	0.383799
15:31:21.179	0.373276
15:31:21.480	0.372112
15:31:21.879	0.343120
15:31:22.180	0.344552
15:31:22.579	0.349413
15:31:22.879	0.337842
15:31:23.179	0.323448
15:31:23.579	0.322195
15:31:23.879	0.319529
15:31:24.180	0.332478
15:31:24.579	0.315814
15:31:24.880	0.302455
15:31:25.280	0.309080
15:31:25.579	0.291564
15:31:25.980	0.299410
15:31:26.280	0.309425
15:31:26.579	0.295319
15:31:26.980	0.278375
15:31:27.279	0.281231
15:31:27.579	0.273148
15:31:27.979	0.268656
15:31:28.279	0.269540
15:31:28.579	0.279143
15:31:28.979	0.267794
15:31:29.279	0.264378
15:31:29.579	0.254125
15:31:29.979	0.259768
15:31:30.280	0.274754
15:31:30.679	0.271985
15:31:30.979	0.278692
15:31:31.280	0.281361
15:31:31.680	0.277855
15:31:31.979	0.274092
15:31:32.380	0.280903
15:31:32.680	0.260063
15:31:33.080	0.250870
15:31:33.380	0.253194
15:31:33.680	0.254659
15:31:34.080	0.255084
15:31:34.379	0.253543
15:31:34.679	0.261845
15:31:35.079	0.247105
15:31:35.379	0.258012
15:31:35.679	0.272680
15:31:36.079	0.281166
15:31:36.380	0.290287
15:31:36.780	0.289704
15:31:37.079	0.289356
15:31:37.480	0.291060
15:31:37.779	0.281529
15:31:38.180	0.272344
15:31:38.480	0.272826
15:31:38.780	0.263232
15:31:39.180	0.262052
15:31:39.479	0.261367
15:31:39.880	0.258359
15:31:40.179	0.260592
15:31:40.480	0.259488
15:31:40.881	0.251154
15:31:41.179	0.243273
15:31:41.480	0.247045
15:31:41.879	0.254629
15:31:42.180	0.242562
15:31:42.479	0.247402
15:31:42.880	0.245345
15:31:43.180	0.242955
15:31:43.580	0.251463
15:31:43.880	0.248208
15:31:44.280	0.257614
15:31:44.579	0.250895
15:31:44.980	0.254663
15:31:45.280	0.245607
15:31:45.579	0.255661
15:31:45.980	0.254156
15:31:46.280	0.241035
15:31:46.580	0.246020
15:31:46.979	0.251266
15:31:47.280	0.242586
15:31:47.580	0.248075
15:31:47.980	0.266521
15:31:48.280	0.272067
15:31:48.579	0.271210
15:31:48.979	0.263800
15:31:49.280	0.264964
15:31:49.580	0.265319
15:31:49.980	0.252406
15:31:50.280	0.272660
15:31:50.580	0.275212
15:31:50.980	0.268304
15:31:51.280	0.262025
15:31:51.579	0.268635
15:31:51.979	0.270900
15:31:52.280	0.272804
15:31:52.579	0.271206
15:31:52.979	0.270428
15:31:53.280	0.269252
15:31:53.580	0.277633
15:31:53.979	0.277933
15:31:54.279	0.279567
15:31:54.579	0.282932
15:31:54.979	0.303308
15:31:55.279	0.300448
15:31:55.579	0.277595
15:31:55.980	0.273020
15:31:56.279	0.273767
15:31:56.580	0.272759
15:31:56.979	0.270792
15:31:57.280	0.271415
15:31:57.580	0.269822
15:31:57.980	0.251716
15:31:58.280	0.259301
15:31:58.580	0.264987
15:31:58.980	0.276239
15:31:59.279	0.275185
15:31:59.579	0.261684
15:31:59.980	0.261758
15:32:00.280	0.251102
15:32:00.580	0.241557
15:32:00.980	0.239608
15:32:01.279	0.245099
15:32:01.579	0.239795
15:32:01.979	0.257716
15:32:02.280	0.253410
15:32:02.579	0.257823
15:32:02.980	0.237135
15:32:03.280	0.224074
15:32:03.679	0.231410
15:32:04.079	0.245855
15:32:04.380	0.249837
15:32:04.780	0.258200
15:32:05.079	0.281364
15:32:05.479	0.289599
15:32:05.780	0.273354
15:32:06.079	0.260660
15:32:06.479	0.263877
15:32:06.780	0.252245
15:32:07.080	0.254671
15:32:07.480	0.264495
15:32:07.779	0.269720
15:32:08.180	0.260339
15:32:08.480	0.266543
15:32:08.780	0.265680
15:32:09.180	0.253914
15:32:09.479	0.253239
15:32:09.779	0.277077
15:32:10.181	0.264563
15:32:10.480	0.260971
15:32:10.880	0.253702
15:32:11.179	0.248460
15:32:11.580	0.250673
15:32:11.879	0.264198
15:32:12.280	0.251935
15:32:12.580	0.244162
15:32:12.979	0.233875
15:32:13.280	0.233543
15:32:13.580	0.230308
15:32:13.980	0.234893
15:32:14.281	0.230238
15:32:14.580	0.235608
15:32:14.980	0.234267
15:32:15.279	0.222989
15:32:15.580	0.217093
15:32:15.981	0.233839
15:32:16.280	0.254260
15:32:16.581	0.259277
15:32:16.980	0.245925
15:32:17.279	0.249733
15:32:17.579	0.247932
15:32:17.980	0.253242
15:32:18.279	0.250265
15:32:18.579	0.250960
15:32:18.979	0.252535
15:32:19.279	0.269387
15:32:19.580	0.268966
15:32:19.980	0.260574
15:32:20.281	0.259295
15:32:20.579	0.252126
15:32:20.979	0.239444
15:32:21.279	0.234972
15:32:21.679	0.260577
15:32:21.980	0.261767
15:32:22.380	0.275093
15:32:22.680	0.278985
15:32:23.080	0.273826
15:32:23.380	0.268273
15:32:23.680	0.267453
15:32:24.079	0.244097
15:32:24.380	0.238191
15:32:24.781	0.248266
15:32:25.079	0.245894
15:32:25.480	0.264126
15:32:25.780	0.268701
15:32:26.080	0.260624
15:32:26.479	0.262787
15:32:26.779	0.262866
15:32:27.180	0.274925
15:32:27.480	0.281047
15:32:27.779	0.263035
15:32:28.180	0.266107
15:32:28.480	0.269662
15:32:28.881	0.296001
15:32:29.179	0.282331
15:32:29.480	0.289302
15:32:29.880	0.298483
15:32:30.180	0.304351
15:32:30.580	0.323212
15:32:30.880	0.321024
15:32:31.280	0.317762
15:32:31.579	0.336238
15:32:31.980	0.323269
15:32:32.280	0.351344
15:32:32.680	0.352265
15:32:32.980	0.363027
15:32:33.380	0.384637
15:32:33.680	0.388752
15:32:34.080	0.422294
15:32:34.379	0.458293
15:32:34.680	0.486068
15:32:35.080	0.536862
15:32:35.379	0.574393
15:32:35.680	0.656753
15:32:36.080	0.758327
15:32:36.379	0.807271
15:32:36.680	0.907400
15:32:37.080	0.983563
15:32:37.380	1.029596
15:32:37.679	1.165984
15:32:38.079	1.346399
15:32:38.380	1.411595
15:32:38.680	1.522191
15:32:39.080	1.631226
15:32:39.380	1.709025
15:32:39.780	1.746981
15:32:40.080	1.845708
15:32:40.480	1.902434
15:32:40.779	1.918762
15:32:41.080	1.934942
15:32:41.480	2.010396
15:32:41.780	2.005529
15:32:42.080	2.000375
15:32:42.480	2.007568
15:32:42.779	1.986320
15:32:43.080	1.951251
15:32:43.480	1.918846
15:32:43.779	1.878609
15:32:44.079	1.851962
15:32:44.480	1.792691
15:32:44.779	1.729340
15:32:45.080	1.702107
15:32:45.479	1.681235
15:32:45.780	1.637498
15:32:46.180	1.630488
15:32:46.480	1.613207
15:32:46.880	1.582591
15:32:47.180	1.535686
15:32:47.580	1.487542
15:32:47.880	1.437762
15:32:48.180	1.430748
15:32:48.580	1.448387
15:32:48.879	1.421838
15:32:49.180	1.406474
15:32:49.579	1.396019
15:32:49.880	1.374013
15:32:50.279	1.327084
15:32:50.580	1.326019
15:32:50.879	1.349534
15:32:51.280	1.366093
15:32:51.580	1.355994
15:32:51.879	1.353214
15:32:52.280	1.339655
15:32:52.579	1.342933
15:32:52.980	1.323261
15:32:53.280	1.308348
15:32:53.680	1.272634
15:32:53.980	1.285135
15:32:54.379	1.280385
15:32:54.679	1.303174
15:32:54.979	1.285519
15:32:55.379	1.282528
15:32:55.680	1.311157
15:32:55.980	1.349197
15:32:56.380	1.340199
15:32:56.680	1.356170
15:32:56.980	1.386820
15:32:57.379	1.394975
15:32:57.680	1.385506
15:32:57.979	1.374694
15:32:58.379	1.406053
15:32:58.680	1.412295
15:32:58.980	1.399332
15:32:59.380	1.390899
15:32:59.679	1.407615
15:33:00.080	1.407582
15:33:00.380	1.416651
15:33:00.780	1.400384
15:33:01.079	1.377448
15:33:01.480	1.348229
15:33:01.780	1.323498
15:33:02.080	1.350390
15:33:02.480	1.363944
15:33:02.779	1.377754
15:33:03.080	1.376976
15:33:03.480	1.374735
15:33:03.780	1.390876
15:33:04.080	1.400656
15:33:04.480	1.393261
15:33:04.779	1.368651
15:33:05.080	1.353966
15:33:05.479	1.346476
15:33:05.780	1.349378
15:33:06.180	1.343618
15:33:06.480	1.325608
15:33:06.781	1.338121
15:33:07.180	1.334402
15:33:07.480	1.349556
15:33:07.880	1.376273
15:33:08.180	1.399672
15:33:08.479	1.428038
15:33:08.879	1.431947
15:33:09.180	1.448141
15:33:09.580	1.409606
15:33:09.880	1.369413
15:33:10.180	1.346397
15:33:10.580	1.332297
15:33:10.880	1.340495
15:33:11.280	1.343684
15:33:11.581	1.321477
15:33:11.980	1.318902
15:33:12.281	1.340471
15:33:12.580	1.363106
15:33:12.980	1.414834
15:33:13.280	1.418679
15:33:13.680	1.425060
15:33:13.980	1.471654
15:33:14.380	1.509056
15:33:14.680	1.558329
15:33:14.979	1.612156
15:33:15.380	1.631124
15:33:15.680	1.706420
15:33:15.980	1.814350
15:33:16.380	1.884575
15:33:16.680	1.956628
15:33:16.980	2.072216
15:33:17.380	2.598029
15:33:18.679	2.723663
15:33:18.980	2.794465
15:33:19.280	2.949535
15:33:19.680	3.106491
15:33:19.979	3.293690
15:33:20.280	3.351077
15:33:20.680	3.445176
15:33:20.979	3.510814
15:33:21.280	3.542133
15:33:21.680	3.605346
15:33:21.981	3.644598
15:33:22.380	3.677255
15:33:22.680	3.674175
15:33:22.979	3.650360
15:33:23.379	3.616138
15:33:23.680	3.598003
15:33:23.980	3.505452
15:33:24.380	3.431118
15:33:24.680	3.382418
15:33:24.980	3.252573
15:33:25.380	3.089096
15:33:25.680	2.984844
15:33:25.980	2.802339
15:33:26.380	2.636324
15:33:26.680	2.574808
15:33:27.080	2.452567
15:33:27.379	2.334250
15:33:27.780	2.187745
15:33:28.080	2.033020
15:33:28.379	1.778944
15:33:29.680	1.672295
15:33:29.979	1.620426
15:33:30.379	1.543587
15:33:30.680	1.486181
15:33:30.979	1.477799
15:33:31.380	1.432493
15:33:31.680	1.364271
15:33:32.080	1.311674
15:33:32.379	1.288037
15:33:32.680	1.265889
15:33:33.080	1.231428
15:33:33.379	1.173188
15:33:33.780	1.138327
15:33:34.080	1.131946
15:33:34.380	1.121907
15:33:34.780	1.059090
15:33:35.081	1.057186
15:33:35.381	1.020389
15:33:35.780	0.981752
15:33:36.079	0.958247
15:33:36.380	0.925799
15:33:36.780	0.899444
15:33:37.080	0.885121
15:33:37.380	0.838575
15:33:37.780	0.828504
15:33:38.080	0.835517
15:33:38.480	0.807422
15:33:38.781	0.771019
15:33:39.080	0.751560
15:33:39.480	0.749841
15:33:39.780	0.734817
15:33:40.080	0.731022
15:33:40.480	0.714823
15:33:40.780	0.684207
15:33:41.080	0.671685
15:33:41.480	0.679012
15:33:41.780	0.659457
15:33:42.079	0.626866
15:33:42.480	0.623270
15:33:42.780	0.604204
15:33:43.080	0.566742
15:33:43.480	0.563016
15:33:43.780	0.566674
15:33:44.179	0.533613
15:33:44.480	0.551991
15:33:44.880	0.553519
15:33:45.180	0.563593
15:33:45.580	0.556450
15:33:45.880	0.552724
15:33:46.180	0.540186
15:33:46.580	0.546036
15:33:46.880	0.554528
15:33:47.180	0.549329
15:33:47.580	0.522122
15:33:47.880	0.494782
15:33:48.179	0.477829
15:33:48.580	0.489587
15:33:48.880	0.483738
15:33:49.180	0.467020
15:33:49.579	0.462949
15:33:49.880	0.468638
15:33:50.180	0.473143
15:33:50.580	0.506403
15:33:50.880	0.501708
15:33:51.280	0.464200
15:33:51.580	0.444695
15:33:51.880	0.444511
15:33:52.280	0.442260
15:33:52.580	0.442870
15:33:52.980	0.451271
15:33:53.280	0.454190
15:33:53.580	0.436804
15:33:53.981	0.428421
15:33:54.280	0.413589
15:33:54.679	0.417201
15:33:54.980	0.395044
15:33:55.280	0.412593
15:33:55.680	0.405986
15:33:55.980	0.386942
15:33:56.279	0.388204
15:33:56.680	0.396105
15:33:56.980	0.383701
15:33:57.280	0.396398
15:33:57.680	0.418847
15:33:57.980	0.407342
15:33:58.280	0.397023
15:33:58.680	0.395779
15:33:58.980	0.407673
15:33:59.280	0.435281
15:33:59.680	0.421960
15:33:59.980	0.414440
15:34:00.279	0.429500
15:34:00.680	0.434288
15:34:00.980	0.436677
15:34:01.280	0.427607
15:34:01.680	0.455427
15:34:01.980	0.437321
15:34:02.280	0.418182
15:34:02.680	0.430727
15:34:02.980	0.431735
15:34:03.280	0.444542
15:34:03.680	0.440370
15:34:03.980	0.439027
15:34:04.280	0.432662
15:34:04.680	0.435203
15:34:04.980	0.449694
15:34:05.380	0.437984
15:34:05.680	0.441923
15:34:06.080	0.450143
15:34:06.380	0.464700
15:34:06.780	0.471053
15:34:07.080	0.464221
15:34:07.380	0.472684
15:34:07.780	0.477778
15:34:08.080	0.477285
15:34:08.380	0.471647
15:34:08.780	0.487283
15:34:09.080	0.466446
15:34:09.381	0.456153
15:34:09.780	0.477098
15:34:10.080	0.477284
15:34:10.380	0.481643
15:34:10.780	0.492413
15:34:11.080	0.492420
15:34:11.380	0.525497
15:34:11.780	0.495894
15:34:12.081	0.485089
15:34:12.480	0.490536
15:34:12.780	0.498603
15:34:13.180	0.500930
15:34:13.480	0.488863
15:34:13.780	0.479987
15:34:14.180	0.466709
15:34:14.480	0.448097
15:34:14.880	0.445836
15:34:15.180	0.456689
15:34:15.580	0.459514
15:34:15.880	0.458024
15:34:16.280	0.451554
15:34:16.580	0.454843
15:34:16.980	0.464175
15:34:17.280	0.455957
15:34:17.581	0.444864
15:34:17.980	0.431822
15:34:18.280	0.435245
15:34:18.680	0.438946
15:34:18.980	0.423653
15:34:19.380	0.403899
15:34:19.680	0.397332
15:34:20.080	0.416742
15:34:20.380	0.412544
15:34:20.680	0.434851
15:34:21.081	0.409915
15:34:21.380	0.399069
15:34:21.680	0.397553
15:34:22.080	0.390865
15:34:22.380	0.390221
15:34:22.680	0.396726
15:34:23.080	0.426812
15:34:23.380	0.400154
15:34:23.780	0.419481
15:34:24.080	0.422982
15:34:24.380	0.422419
15:34:24.780	0.434791
15:34:25.081	0.425542
15:34:25.380	0.413679
15:34:25.780	0.424892
15:34:26.080	0.420203
15:34:26.381	0.409620
15:34:26.780	0.411140
15:34:27.080	0.409306
15:34:27.380	0.417676
15:34:27.780	0.442527
15:34:28.080	0.451659
15:34:28.381	0.453116
15:34:28.780	0.438071
15:34:29.080	0.428125
15:34:29.380	0.439610
15:34:29.780	0.451712
15:34:30.080	0.453861
15:34:30.380	0.465248
15:34:30.780	0.497922
15:34:31.080	0.514571
15:34:31.380	0.529912
15:34:31.780	0.516643
15:34:32.081	0.536629
15:34:32.480	0.536940
15:34:32.881	0.554360
15:34:33.181	0.558951
15:34:33.580	0.555999
15:34:33.880	0.546866
15:34:34.280	0.569540
15:34:34.580	0.568246
15:34:34.880	0.548097
15:34:35.280	0.569193
15:34:35.580	0.554535
15:34:35.980	0.559308
15:34:36.280	0.556670
15:34:36.681	0.553970
15:34:36.980	0.540507
15:34:37.380	0.552799
15:34:37.680	0.559726
15:34:38.082	0.587473
15:34:38.381	0.561056
15:34:38.680	0.544047
15:34:39.082	0.538911
15:34:39.381	0.526162
15:34:39.780	0.513251
15:34:40.080	0.493149
15:34:40.380	0.462143
15:34:40.781	0.427098
15:34:41.080	0.429546
15:34:41.381	0.442316
15:34:41.781	0.454316
15:34:42.080	0.453222
15:34:42.380	0.454851
15:34:42.780	0.459239
15:34:43.081	0.431496
15:34:43.381	0.436194
15:34:43.781	0.422536
15:34:44.080	0.420203
15:34:44.380	0.418346
15:34:44.780	0.407358
15:34:45.080	0.435376
15:34:45.380	0.433089
15:34:45.780	0.430465
15:34:46.082	0.433760
15:34:46.480	0.431341
15:34:46.781	0.437562
15:34:47.181	0.458749
15:34:47.480	0.478928
15:34:47.781	0.474088
15:34:48.181	0.501849
15:34:48.480	0.535394
15:34:48.780	0.551533
15:34:49.180	0.563765
15:34:49.480	0.578279
15:34:49.780	0.600722
15:34:50.180	0.618092
15:34:50.481	0.607345
15:34:50.781	0.621785
15:34:51.180	0.635019
15:34:51.481	0.651573
15:34:51.781	0.691935
15:34:52.180	0.697387
15:34:52.481	0.688029
15:34:52.781	0.680032
15:34:53.180	0.683395
15:34:53.480	0.695808
15:34:53.881	0.676823
15:34:54.181	0.676371
15:34:54.581	0.660971
15:34:54.881	0.666132
15:34:55.281	0.665398
15:34:55.581	0.637885
15:34:55.881	0.629085
15:34:56.282	0.636871
15:34:56.581	0.669529
15:34:56.980	0.669181
15:34:57.280	0.672921
15:34:57.680	0.659118
15:34:57.981	0.665889
15:34:58.280	0.679568
15:34:58.680	0.684509
15:34:58.980	0.684974
15:34:59.380	0.695099
15:34:59.681	0.674152
15:34:59.980	0.665376
15:35:00.381	0.674334
15:35:00.680	0.707619
15:35:01.080	0.703019
15:35:01.381	0.703437
15:35:01.681	0.729079
15:35:02.081	0.724555
15:35:02.380	0.724000
15:35:02.781	0.717607
15:35:03.081	0.735353
15:35:03.480	0.737014
15:35:03.780	0.723415
15:35:04.081	0.705989
15:35:04.481	0.692758
15:35:04.780	0.700775
15:35:05.180	0.687597
15:35:05.481	0.658699
15:35:05.780	0.625237
15:35:06.180	0.622483
15:35:06.481	0.631523
15:35:06.781	0.620695
15:35:07.180	0.587540
15:35:07.480	0.556561
15:35:07.881	0.543924
15:35:08.181	0.558543
15:35:08.580	0.549215
15:35:08.880	0.546148
15:35:09.281	0.554900
15:35:09.582	0.528688
15:35:09.881	0.517625
15:35:10.281	0.496509
15:35:10.581	0.479623
15:35:10.880	0.491591
15:35:11.280	0.506151
15:35:11.580	0.508650
15:35:11.882	0.519570
15:35:12.281	0.496366
15:35:12.580	0.465660
15:35:12.880	0.458112
15:35:13.280	0.442439
15:35:13.580	0.446797
15:35:13.880	0.445970
15:35:14.281	0.442502
15:35:14.581	0.433449
15:35:14.980	0.432161
15:35:15.280	0.422659
15:35:15.580	0.424598
15:35:15.980	0.416736
15:35:16.280	0.415262
15:35:16.580	0.424940
15:35:16.981	0.433303
15:35:17.281	0.427728
15:35:17.580	0.428336
15:35:17.981	0.417312
15:35:18.281	0.407044
15:35:18.681	0.385379
15:35:18.980	0.385943
15:35:19.280	0.396566
15:35:19.681	0.407198
15:35:19.980	0.400538
15:35:20.381	0.376347
15:35:20.682	0.380532
15:35:20.980	0.386929
15:35:21.380	0.396468
15:35:21.680	0.384953
15:35:22.081	0.378685
15:35:22.380	0.389139
15:35:22.680	0.397491
15:35:23.081	0.398220
15:35:23.381	0.377876
15:35:23.680	0.361717
15:35:24.080	0.369132
15:35:24.381	0.376690
15:35:24.682	0.376310
15:35:25.081	0.349323
15:35:25.381	0.364211
15:35:25.681	0.360328
15:35:26.082	0.353239
15:35:26.381	0.341670
15:35:26.781	0.332820
15:35:27.081	0.343043
15:35:27.381	0.337037
15:35:27.781	0.318166
15:35:28.080	0.314881
15:35:28.481	0.328237
15:35:28.780	0.322581
15:35:29.181	0.330329
15:35:29.481	0.326294
15:35:29.781	0.325179
15:35:30.181	0.341729
15:35:30.480	0.342761
15:35:30.781	0.352291
15:35:31.180	0.367672
15:35:31.480	0.390329
15:35:31.781	0.404398
15:35:32.181	0.389831
15:35:32.481	0.390700
15:35:32.781	0.392622
15:35:33.181	0.386660
15:35:33.480	0.403028
15:35:33.781	0.407898
15:35:34.181	0.409883
15:35:34.481	0.406033
15:35:34.781	0.400939
15:35:35.182	0.377904
15:35:35.480	0.383025