Chart Recorder Data File Fri, Sep 20, 2024 10:21 AM
Time (s)	CH1 (V)  
10:15:59.473	0.641824
10:16:00.372	0.640984
10:16:00.672	0.661101
10:16:01.073	0.657704
10:16:01.373	0.664567
10:16:01.773	0.637934
10:16:02.072	0.644653
10:16:02.472	0.659608
10:16:02.773	0.662075
10:16:03.172	0.638770
10:16:03.473	0.630104
10:16:03.772	0.626485
10:16:04.173	0.614458
10:16:04.473	0.589240
10:16:04.872	0.601329
10:16:05.173	0.600445
10:16:05.573	0.628864
10:16:05.873	0.633570
10:16:06.172	0.632105
10:16:06.573	0.647434
10:16:06.872	0.625582
10:16:07.273	0.649945
10:16:07.573	0.576191
10:16:07.973	0.577519
10:16:08.272	0.622446
10:16:08.673	0.611053
10:16:08.972	0.578551
10:16:09.373	0.617815
10:16:09.672	0.623889
10:16:10.073	0.595079
10:16:10.373	0.602270
10:16:10.772	0.615578
10:16:11.072	0.608429
10:16:11.472	0.589971
10:16:11.773	0.616426
10:16:12.172	0.583163
10:16:12.473	0.573769
10:16:12.873	0.573673
10:16:13.173	0.583304
10:16:13.573	0.617136
10:16:13.872	0.613950
10:16:14.272	0.611088
10:16:14.572	0.580861
10:16:14.873	0.587130
10:16:15.272	0.578130
10:16:15.573	0.576486
10:16:15.872	0.591081
10:16:16.273	0.640867
10:16:16.573	0.643041
10:16:16.873	0.608925
10:16:17.272	0.612642
10:16:17.573	0.594610
10:16:17.873	0.603335
10:16:18.273	0.607224
10:16:18.573	0.617130
10:16:18.873	0.578694
10:16:19.273	0.586367
10:16:19.572	0.592130
10:16:19.873	0.632851
10:16:20.273	0.630549
10:16:20.573	0.640242
10:16:20.972	0.643394
10:16:21.273	0.629835
10:16:21.673	0.643695
10:16:21.973	0.636348
10:16:22.373	0.659048
10:16:22.673	0.628089
10:16:22.973	0.610005
10:16:23.372	0.610664
10:16:23.672	0.627552
10:16:23.973	0.635901
10:16:24.373	0.604797
10:16:24.673	0.603081
10:16:25.072	0.623782
10:16:25.373	0.624922
10:16:25.772	0.614949
10:16:26.072	0.606305
10:16:26.473	0.608274
10:16:26.773	0.613693
10:16:27.172	0.619837
10:16:27.473	0.603693
10:16:27.872	0.555231
10:16:28.173	0.588883
10:16:28.572	0.588579
10:16:28.873	0.608145
10:16:29.273	0.623187
10:16:29.573	0.634190
10:16:29.873	0.614127
10:16:30.272	0.619127
10:16:30.573	0.618631
10:16:30.873	0.634993
10:16:31.273	0.620653
10:16:31.572	0.586625
10:16:31.972	0.560249
10:16:32.273	0.568673
10:16:32.673	0.598369
10:16:32.973	0.610445
10:16:33.373	0.617048
10:16:33.673	0.620539
10:16:34.073	0.624731
10:16:34.373	0.627371
10:16:34.673	0.672002
10:16:35.072	0.678177
10:16:35.372	0.674989
10:16:35.673	0.652902
10:16:36.073	0.660341
10:16:36.372	0.664270
10:16:36.772	0.654143
10:16:37.073	0.635690
10:16:37.473	0.640034
10:16:37.773	0.649554
10:16:38.072	0.649067
10:16:38.473	0.634104
10:16:38.773	0.660247
10:16:39.073	0.657196
10:16:39.473	0.623157
10:16:39.773	0.623459
10:16:40.173	0.638095
10:16:40.473	0.669381
10:16:40.873	0.690186
10:16:41.172	0.686802
10:16:41.572	0.702521
10:16:41.872	0.697028
10:16:42.273	0.686811
10:16:42.573	0.668843
10:16:42.873	0.660542
10:16:43.273	0.615955
10:16:43.573	0.617846
10:16:43.873	0.626462
10:16:44.273	0.625655
10:16:44.573	0.627888
10:16:44.873	0.622016
10:16:45.273	0.643246
10:16:45.573	0.661428
10:16:45.973	0.664020
10:16:46.273	0.647377
10:16:46.673	0.651299
10:16:46.972	0.600209
10:16:47.374	0.639944
10:16:47.673	0.663989
10:16:48.073	0.661433
10:16:48.373	0.661048
10:16:48.773	0.631705
10:16:49.073	0.616180
10:16:49.472	0.614155
10:16:49.773	0.587516
10:16:50.073	0.583677
10:16:50.473	0.635401
10:16:50.772	0.623613
10:16:51.073	0.646024
10:16:51.472	0.672606
10:16:51.773	0.641752
10:16:52.073	0.652505
10:16:52.472	0.649455
10:16:52.773	0.614920
10:16:53.173	0.600409
10:16:53.473	0.692495
10:16:53.872	0.654976
10:16:54.173	0.658953
10:16:54.573	0.651131
10:16:54.873	0.654834
10:16:55.273	0.624841
10:16:55.573	0.600956
10:16:55.973	0.595772
10:16:56.273	0.601699
10:16:56.673	0.624014
10:16:56.972	0.636507
10:16:57.372	0.644150
10:16:57.673	0.631993
10:16:57.973	0.620233
10:16:58.372	0.628320
10:16:58.673	0.639617
10:16:58.973	0.631727
10:16:59.373	0.640189
10:16:59.673	0.652222
10:17:00.073	0.628946
10:17:00.372	0.622786
10:17:00.773	0.627161
10:17:01.073	0.664470
10:17:01.473	0.657620
10:17:01.773	0.649753
10:17:02.173	0.636903
10:17:02.473	0.635640
10:17:02.873	0.658566
10:17:03.173	0.664561
10:17:03.573	0.679005
10:17:03.873	0.813432
10:17:04.173	0.816917
10:17:04.573	0.828747
10:17:04.873	0.747314
10:17:05.272	0.711915
10:17:05.573	0.731705
10:17:05.873	0.724825
10:17:06.273	0.826654
10:17:06.572	0.848330
10:17:06.973	0.798653
10:17:07.273	0.740104
10:17:07.672	0.694388
10:17:07.973	0.696367
10:17:08.372	0.721118
10:17:08.673	0.707880
10:17:09.073	0.662057
10:17:09.372	0.672960
10:17:09.772	0.649734
10:17:10.073	0.654062
10:17:10.473	0.666423
10:17:10.772	0.656995
10:17:11.173	0.659495
10:17:11.473	0.653471
10:17:11.874	0.664843
10:17:12.173	0.684354
10:17:12.573	0.677203
10:17:12.873	0.672716
10:17:13.173	0.692714
10:17:13.572	0.684530
10:17:13.873	0.696095
10:17:14.274	0.711565
10:17:14.573	0.713926
10:17:14.973	0.707331
10:17:15.273	0.714217
10:17:15.673	0.739185
10:17:15.973	0.749350
10:17:16.372	0.726502
10:17:16.673	0.725877
10:17:16.973	0.745108
10:17:17.372	0.754160
10:17:17.673	0.777353
10:17:18.073	0.797303
10:17:18.373	0.808295
10:17:18.772	0.819550
10:17:19.073	0.822212
10:17:19.473	0.856051
10:17:19.772	0.872557
10:17:20.073	0.915345
10:17:20.472	0.982858
10:17:20.773	1.009298
10:17:21.072	1.068324
10:17:21.473	1.115867
10:17:21.773	1.155632
10:17:22.172	1.183211
10:17:22.473	1.256628
10:17:22.872	1.327875
10:17:23.173	1.335463
10:17:23.573	1.320695
10:17:23.873	1.286191
10:17:24.173	1.275994
10:17:24.572	1.260957
10:17:24.872	1.224527
10:17:25.173	1.169407
10:17:25.572	1.160080
10:17:25.872	1.138645
10:17:26.173	1.080874
10:17:26.573	1.079785
10:17:26.873	1.109934
10:17:27.273	1.019344
10:17:27.573	0.978632
10:17:27.973	0.988213
10:17:28.273	0.923558
10:17:28.672	0.933714
10:17:28.972	0.951514
10:17:29.373	0.979549
10:17:29.673	0.949859
10:17:30.073	0.918587
10:17:30.373	0.903239
10:17:30.773	0.920946
10:17:31.073	0.897076
10:17:31.373	0.891415
10:17:31.773	0.883623
10:17:32.073	0.915226
10:17:32.473	0.914773
10:17:32.773	0.929234
10:17:33.173	0.907770
10:17:33.473	0.936047
10:17:33.873	0.949074
10:17:34.173	0.961765
10:17:34.573	0.989698
10:17:34.873	0.982721
10:17:35.272	0.960078
10:17:35.573	0.953331
10:17:35.973	0.993079
10:17:36.273	0.961779
10:17:36.673	0.982696
10:17:36.973	1.005036
10:17:37.372	0.987259
10:17:37.673	1.015618
10:17:38.073	1.055048
10:17:38.373	1.046829
10:17:38.773	0.972779
10:17:39.072	0.960175
10:17:39.473	0.960556
10:17:39.773	0.943808
10:17:40.173	0.978711
10:17:40.473	0.960473
10:17:40.873	0.896553
10:17:41.173	0.862694
10:17:41.473	0.853082
10:17:41.872	0.836604
10:17:42.173	0.784266
10:17:42.473	0.767691
10:17:42.872	0.736415
10:17:43.173	0.737603
10:17:43.473	0.725698
10:17:43.873	0.731226
10:17:44.172	0.706794
10:17:44.572	0.718762
10:17:44.873	0.703928
10:17:45.172	0.681216
10:17:45.573	0.674120
10:17:45.873	0.671093
10:17:46.273	0.666957
10:17:46.573	0.684643
10:17:46.972	0.674191
10:17:47.273	0.662260
10:17:47.673	0.680680
10:17:47.973	0.707828
10:17:48.373	0.721535
10:17:48.673	0.705978
10:17:49.073	0.667158
10:17:49.373	0.663600
10:17:49.773	0.690008
10:17:50.073	0.697710
10:17:50.473	0.687127
10:17:50.773	0.693456
10:17:51.172	0.706557
10:17:51.473	0.712961
10:17:51.873	0.715828
10:17:52.173	0.718170
10:17:52.473	0.697156
10:17:52.874	0.689395
10:17:53.173	0.684122
10:17:53.572	0.670812
10:17:53.873	0.644894
10:17:54.173	0.667161
10:17:54.573	0.674273
10:17:54.872	0.680623
10:17:55.173	0.672256
10:17:55.573	0.642620
10:17:55.873	0.630716
10:17:56.273	0.644567
10:17:56.573	0.659669
10:17:56.973	0.684232
10:17:57.272	0.702229
10:17:57.573	0.696396
10:17:57.972	0.697521
10:17:58.273	0.698826
10:17:58.673	0.686735
10:17:58.973	0.703660
10:17:59.373	0.711512
10:17:59.673	0.700865
10:18:00.073	0.686100
10:18:00.373	0.683373
10:18:00.773	0.684950
10:18:01.073	0.688444
10:18:01.474	0.686950
10:18:01.773	0.682151
10:18:02.173	0.691534
10:18:02.472	0.706430
10:18:02.872	0.704510
10:18:03.173	0.699072
10:18:03.473	0.713398
10:18:03.873	0.700544
10:18:04.173	0.698065
10:18:04.573	0.695703
10:18:04.873	0.692294
10:18:05.273	0.697946
10:18:05.572	0.685720
10:18:05.972	0.687818
10:18:06.273	0.674219
10:18:06.573	0.689039
10:18:06.973	0.694365
10:18:07.273	0.703528
10:18:07.673	0.737539
10:18:07.972	0.729148
10:18:08.273	0.709820
10:18:08.673	0.698719
10:18:08.973	0.701130
10:18:09.272	0.674600
10:18:09.673	0.663374
10:18:09.973	0.671331
10:18:10.373	0.666310
10:18:10.673	0.661604
10:18:11.073	0.670611
10:18:11.374	0.647893
10:18:11.773	0.625410
10:18:12.073	0.624002
10:18:12.473	0.625429
10:18:12.773	0.656680
10:18:13.173	0.668515
10:18:13.473	0.664733
10:18:13.873	0.677365
10:18:14.172	0.692055
10:18:14.573	0.701091
10:18:14.873	0.704954
10:18:15.173	0.707442
10:18:15.573	0.693292
10:18:15.873	0.677698
10:18:16.273	0.669893
10:18:16.573	0.684928
10:18:16.873	0.689732
10:18:17.274	0.680722
10:18:17.573	0.670597
10:18:17.973	0.671007
10:18:18.273	0.691783
10:18:18.573	0.686175
10:18:18.973	0.678504
10:18:19.273	0.653318
10:18:19.673	0.634153
10:18:19.973	0.626808
10:18:20.373	0.628655
10:18:20.673	0.667370
10:18:21.073	0.663496
10:18:21.373	0.654254
10:18:21.773	0.663707
10:18:22.073	0.643327
10:18:22.373	0.640077
10:18:22.773	0.630699
10:18:23.073	0.639957
10:18:23.373	0.636732
10:18:23.773	0.668754
10:18:24.073	0.700047
10:18:24.373	0.723307
10:18:24.773	0.811785
10:18:25.074	0.911723
10:18:25.473	1.027544
10:18:25.773	1.183939
10:18:26.173	1.278366
10:18:26.473	1.462293
10:18:26.873	1.642732
10:18:27.173	1.832511
10:18:27.573	1.974665
10:18:27.873	2.027312
10:18:28.273	2.112355
10:18:28.573	2.092103
10:18:28.973	2.014973
10:18:29.273	1.971554
10:18:29.574	1.833478
10:18:29.973	1.588264
10:18:30.273	1.493158
10:18:30.673	1.332847
10:18:30.973	1.204297
10:18:31.374	1.065816
10:18:31.673	1.005208
10:18:32.073	0.944544
10:18:32.373	0.878514
10:18:32.773	0.845204
10:18:33.074	0.836311
10:18:33.473	0.808291
10:18:33.773	0.765558
10:18:34.173	0.751691
10:18:34.473	0.712474
10:18:34.873	0.694200
10:18:35.173	0.695308
10:18:35.473	0.714389
10:18:35.873	0.713519
10:18:36.173	0.686541
10:18:36.473	0.646185
10:18:36.873	0.622453
10:18:37.173	0.628245
10:18:37.473	0.625804
10:18:37.874	0.619748
10:18:38.173	0.612826
10:18:38.473	0.604542
10:18:38.873	0.605044
10:18:39.173	0.616818
10:18:39.574	0.660390
10:18:39.874	0.649190
10:18:40.273	0.648333
10:18:40.573	0.661859
10:18:40.973	0.670213
10:18:41.273	0.668670
10:18:41.673	0.650946
10:18:41.973	0.675826
10:18:42.373	0.684259
10:18:42.673	0.663869
10:18:42.974	0.702738
10:18:43.374	0.709920
10:18:43.673	0.713928
10:18:44.073	0.724846
10:18:44.373	0.717326
10:18:44.674	0.710207
10:18:45.073	0.696807
10:18:45.373	0.677380
10:18:45.774	0.673639
10:18:46.074	0.665745
10:18:46.473	0.668385
10:18:46.773	0.647248
10:18:47.173	0.660131
10:18:47.473	0.662817
10:18:47.874	0.630247
10:18:48.174	0.630152
10:18:48.573	0.635126
10:18:48.874	0.666178
10:18:49.273	0.668419
10:18:49.573	0.664741
10:18:49.974	0.648271
10:18:50.274	0.652349
10:18:50.673	0.647864
10:18:50.973	0.655939
10:18:51.374	0.648634
10:18:51.674	0.639780
10:18:52.074	0.626728
10:18:52.374	0.623699
10:18:52.774	0.619397
10:18:53.074	0.616524
10:18:53.473	0.668456
10:18:53.774	0.673353
10:18:54.173	0.687428
10:18:54.473	0.643442
10:18:54.873	0.635083
10:18:55.174	0.626106
10:18:55.573	0.638761
10:18:55.873	0.659075
10:18:56.273	0.670474
10:18:56.674	0.666848
10:18:56.974	0.695649
10:18:57.373	0.670086
10:18:57.673	0.677126
10:18:58.073	0.678843
10:18:58.373	0.670794
10:18:58.774	0.651803
10:18:59.074	0.628889
10:18:59.473	0.618087
10:18:59.774	0.633398
10:19:00.174	0.656140
10:19:00.474	0.649497
10:19:00.873	0.622977
10:19:01.174	0.660515
10:19:01.574	0.641658
10:19:01.873	0.633354
10:19:02.273	0.650703
10:19:02.574	0.656950
10:19:02.973	0.660825
10:19:03.273	0.657128
10:19:03.673	0.660854
10:19:03.974	0.661129
10:19:04.374	0.670931
10:19:04.673	0.627043
10:19:04.974	0.629385
10:19:05.374	0.661419
10:19:05.674	0.649351
10:19:06.074	0.621411
10:19:06.374	0.635660
10:19:06.674	0.661879
10:19:07.073	0.694118
10:19:07.373	0.693869
10:19:07.674	0.705084
10:19:08.074	0.724233
10:19:08.374	0.734931
10:19:08.774	0.797002
10:19:09.073	0.910674
10:19:09.473	1.024630
10:19:09.774	1.081817
10:19:10.173	1.266978
10:19:10.474	1.491088
10:19:10.774	1.593059
10:19:11.174	1.820814
10:19:11.473	2.037826
10:19:11.874	2.405516
10:19:13.174	2.412205
10:19:13.474	2.401955
10:19:13.874	2.304078
10:19:14.174	2.238974
10:19:14.574	2.128766
10:19:14.874	2.085672
10:19:15.274	2.067862
10:19:15.574	2.044858
10:19:15.975	1.835153
10:19:17.274	1.817200
10:19:17.573	1.811207
10:19:17.974	1.790479
10:19:18.274	1.768081
10:19:18.674	1.767766
10:19:18.973	1.768681
10:19:19.374	1.786713
10:19:19.674	1.754181
10:19:19.974	1.742911
10:19:20.374	1.770621
10:19:20.674	1.773814
10:19:21.074	1.778904
10:19:21.373	1.782735
10:19:21.774	1.780765
10:19:22.073	1.786000
10:19:22.373	1.763380
10:19:22.774	1.762276
10:19:23.074	1.768612
10:19:23.474	1.776184
10:19:23.773	1.781595
10:19:24.173	1.774407
10:19:24.474	1.761347
10:19:24.874	1.790869
10:19:25.173	1.821969
10:19:25.573	1.815972
10:19:25.874	1.841228
10:19:26.274	1.826745
10:19:26.573	1.831857
10:19:26.874	1.860804
10:19:27.273	1.863259
10:19:27.574	1.881285
10:19:27.974	1.892717
10:19:28.274	1.969175
10:19:28.673	2.016335
10:19:28.974	2.050787
10:19:29.373	2.155824
10:19:29.673	2.785022
10:19:30.973	3.108255
10:19:31.274	3.266415
10:19:31.674	3.609856
10:19:31.973	3.921841
10:19:32.373	4.152100
10:19:32.674	4.281037
10:19:32.974	4.319374
10:19:33.373	4.272543
10:19:33.674	4.213478
10:19:34.073	4.003230
10:19:34.374	3.904543
10:19:34.775	3.692587
10:19:35.074	3.450594
10:19:35.374	3.338761
10:19:35.774	3.078207
10:19:36.073	2.807671
10:19:36.473	2.622266
10:19:36.773	2.530268
10:19:37.174	2.409294
10:19:37.474	2.220073
10:19:37.874	2.052605
10:19:38.173	2.020569
10:19:38.574	1.653000
10:19:39.873	1.587677
10:19:40.174	1.581740
10:19:40.573	1.548354
10:19:40.874	1.444415
10:19:41.274	1.358063
10:19:41.573	1.305372
10:19:41.973	1.199610
10:19:42.274	1.196092
10:19:42.674	1.117560
10:19:42.974	1.142056
10:19:43.274	1.145531
10:19:43.674	1.136072
10:19:43.974	1.056208
10:19:44.274	1.051129
10:19:44.674	1.035488
10:19:44.974	1.018404
10:19:45.374	1.005748
10:19:45.674	1.016913
10:19:45.973	1.007116
10:19:46.373	0.959818
10:19:46.674	0.965358
10:19:47.073	0.960174
10:19:47.373	0.981464
10:19:47.773	0.988640
10:19:48.074	0.994160
10:19:48.373	0.951579
10:19:48.773	0.912920
10:19:49.074	0.965705
10:19:49.473	0.940922
10:19:49.773	0.956473
10:19:50.074	0.956666
10:19:50.473	0.932124
10:19:50.774	0.911143
10:19:51.174	0.947170
10:19:51.474	0.954402
10:19:51.874	0.936440
10:19:52.174	0.944480
10:19:52.574	0.959966
10:19:52.874	0.966656
10:19:53.174	0.962465
10:19:53.574	0.951429
10:19:53.874	0.968088
10:19:54.173	0.956005
10:19:54.574	0.988395
10:19:54.874	0.979635
10:19:55.273	0.969977
10:19:55.574	0.960451
10:19:55.973	0.949153
10:19:56.273	0.931701
10:19:56.674	0.923067
10:19:56.974	0.909158
10:19:57.273	0.928139
10:19:57.674	0.946448
10:19:57.974	0.959412
10:19:58.374	0.961112
10:19:58.674	0.951247
10:19:59.073	0.954122
10:19:59.374	0.934378
10:19:59.773	0.928059
10:20:00.074	0.912240
10:20:00.474	0.893177
10:20:00.773	0.927717
10:20:01.174	0.905755
10:20:01.473	0.905841
10:20:01.873	0.900692
10:20:02.174	0.898392
10:20:02.574	0.877671
10:20:02.874	0.884045
10:20:03.273	0.887922
10:20:03.574	0.902241
10:20:03.974	0.899534
10:20:04.274	0.905068
10:20:04.674	0.888850
10:20:04.974	0.869300
10:20:05.374	0.877263
10:20:05.674	0.891608
10:20:06.074	0.911966
10:20:06.373	0.925284
10:20:06.773	0.943415
10:20:07.074	0.968659
10:20:07.474	0.983010
10:20:07.774	0.995774
10:20:08.174	1.001700
10:20:08.474	1.001266
10:20:08.874	1.022848
10:20:09.174	1.016489
10:20:09.574	1.011258
10:20:09.874	1.008845
10:20:10.273	1.021976
10:20:10.573	0.995094
10:20:10.974	0.982670
10:20:11.274	0.981390
10:20:11.673	0.975045
10:20:11.973	0.973353
10:20:12.274	0.957069
10:20:12.674	0.950543
10:20:12.974	0.947310
10:20:13.274	0.942273
10:20:13.674	0.931279
10:20:13.973	0.925009
10:20:14.374	0.940774
10:20:14.674	0.945077
10:20:15.074	0.955217
10:20:15.373	0.968635
10:20:15.774	1.016911
10:20:16.074	1.011432
10:20:16.474	1.041570
10:20:16.774	1.075252
10:20:17.173	1.112532
10:20:17.474	1.111660
10:20:17.874	1.112307
10:20:18.174	1.149588
10:20:18.573	1.168971
10:20:18.874	1.188200
10:20:19.174	1.194307
10:20:19.574	1.200810
10:20:19.874	1.209789
10:20:20.274	1.213290
10:20:20.573	1.227245
10:20:20.973	1.242219
10:20:21.274	1.260082
10:20:21.674	1.249610
10:20:21.974	1.239822
10:20:22.274	1.260823
10:20:22.674	1.268598
10:20:22.974	1.264686
10:20:23.374	1.258114
10:20:23.674	1.248381
10:20:24.074	1.229831
10:20:24.374	1.213198
10:20:24.774	1.190989
10:20:25.073	1.144114
10:20:25.474	1.129570
10:20:25.773	1.104073
10:20:26.174	1.108740
10:20:26.473	1.115086
10:20:26.874	1.071072
10:20:27.174	1.053513
10:20:27.574	1.049840
10:20:27.873	1.017893
10:20:28.274	0.997192
10:20:28.574	0.947130
10:20:28.974	0.962372
10:20:29.274	0.974566
10:20:29.674	0.964822
10:20:29.973	0.979879
10:20:30.374	0.982338
10:20:30.674	0.964003
10:20:31.074	0.926208
10:20:31.374	0.928715
10:20:31.774	0.904028
10:20:32.073	0.887432
10:20:32.474	0.865435
10:20:32.774	0.861102
10:20:33.174	0.838967
10:20:33.474	0.837091
10:20:33.874	0.823951
10:20:34.174	0.779461
10:20:34.574	0.784975
10:20:34.874	0.787944
10:20:35.273	0.789330
10:20:35.574	0.784153
10:20:35.973	0.785908
10:20:36.273	0.782937
10:20:36.573	0.778971
10:20:36.973	0.761250
10:20:37.273	0.792190
10:20:37.673	0.813881
10:20:37.974	0.813428
10:20:38.274	0.814718
10:20:38.673	0.815224
10:20:38.974	0.813535
10:20:39.373	0.804455
10:20:39.674	0.804016
10:20:40.074	0.819109
10:20:40.374	0.813345
10:20:40.674	0.802534
10:20:41.074	0.775004
10:20:41.373	0.704426
10:20:41.774	0.686309
10:20:42.074	0.728475
10:20:42.473	0.759689
10:20:42.774	0.740287
10:20:43.174	0.735777
10:20:43.474	0.738506
10:20:43.874	0.756179
10:20:44.174	0.735451
10:20:44.574	0.734610
10:20:44.874	0.727425
10:20:45.274	0.654351
10:20:45.575	0.696663
10:20:45.974	0.710291
10:20:46.273	0.713018
10:20:46.674	0.737226
10:20:46.974	0.738446
10:20:47.374	0.730192
10:20:47.673	0.737324
10:20:48.074	0.734088
10:20:48.374	0.741779
10:20:48.774	0.730164
10:20:49.073	0.723729
10:20:49.374	0.726075
10:20:49.774	0.679835
10:20:50.075	0.681337
10:20:50.473	0.669126
10:20:50.774	0.651245
10:20:51.173	0.662841
10:20:51.474	0.651989
10:20:51.874	0.636136
10:20:52.174	0.623731
10:20:52.575	0.631886
10:20:52.874	0.626344
10:20:53.274	0.599404
10:20:53.574	0.618091
10:20:53.974	0.663364
10:20:54.274	0.707188
10:20:54.574	0.672349
10:20:54.974	0.604577
10:20:55.273	0.606507
10:20:55.673	0.604677
10:20:55.974	0.595376
10:20:56.374	0.630304
10:20:56.674	0.630927
10:20:57.074	0.659700
10:20:57.374	0.694071
10:20:57.674	0.663882
10:20:58.073	0.671928
10:20:58.374	0.645067
10:20:58.674	0.659545
10:20:59.074	0.648040
10:20:59.374	0.752865
10:20:59.774	0.747783