Chart Recorder Data File Mon, Sep 23, 2024 9:31 AM
Time (s)	CH1 (V)  
09:23:41.886	0.017099
09:23:42.786	0.020814
09:23:43.086	0.021661
09:23:43.486	0.011619
09:23:43.786	0.030825
09:23:44.086	0.025897
09:23:44.486	0.016857
09:23:44.786	0.024990
09:23:45.086	0.015651
09:23:45.487	0.021015
09:23:45.786	0.020178
09:23:46.086	0.018769
09:23:46.486	0.012222
09:23:46.786	0.012643
09:23:47.087	0.031128
09:23:47.486	0.031633
09:23:47.786	0.028551
09:23:48.187	0.022756
09:23:48.487	0.025034
09:23:48.787	0.020283
09:23:49.087	0.026226
09:23:49.486	0.015424
09:23:49.786	0.017848
09:23:50.186	0.026550
09:23:50.487	0.023276
09:23:50.887	0.027951
09:23:51.187	0.018150
09:23:51.588	0.032957
09:23:51.886	0.036163
09:23:52.186	0.036691
09:23:52.587	0.035665
09:23:52.886	0.027225
09:23:53.186	0.035002
09:23:53.586	0.033133
09:23:53.887	0.028828
09:23:54.186	0.043082
09:23:54.587	0.035728
09:23:54.887	0.029410
09:23:55.286	0.039026
09:23:55.586	0.037164
09:23:55.886	0.033367
09:23:56.287	0.035727
09:23:56.587	0.035104
09:23:56.887	0.024638
09:23:57.287	0.031276
09:23:57.586	0.023306
09:23:57.986	0.035542
09:23:58.287	0.032193
09:23:58.586	0.046500
09:23:58.986	0.038507
09:23:59.286	0.032560
09:23:59.686	0.034891
09:23:59.986	0.037962
09:24:00.286	0.037388
09:24:00.686	0.047620
09:24:00.987	0.046693
09:24:01.287	0.042063
09:24:01.687	0.036232
09:24:01.986	0.041246
09:24:02.286	0.055243
09:24:02.686	0.063253
09:24:02.986	0.070234
09:24:03.287	0.046832
09:24:03.587	0.049777
09:24:03.987	0.054037
09:24:04.287	0.055126
09:24:04.587	0.059131
09:24:04.986	0.065138
09:24:05.287	0.067165
09:24:05.587	0.055998
09:24:05.987	0.060115
09:24:06.287	0.058774
09:24:06.586	0.067246
09:24:06.987	0.062312
09:24:07.287	0.055165
09:24:07.587	0.064718
09:24:07.987	0.047318
09:24:08.286	0.049486
09:24:08.586	0.048251
09:24:08.987	0.047182
09:24:09.286	0.047946
09:24:09.586	0.057464
09:24:09.987	0.063282
09:24:10.287	0.061353
09:24:10.587	0.049770
09:24:10.987	0.050783
09:24:11.287	0.043547
09:24:11.586	0.052428
09:24:11.987	0.045277
09:24:12.287	0.055050
09:24:12.587	0.051987
09:24:12.987	0.035213
09:24:13.287	0.085403
09:24:13.587	0.085754
09:24:13.987	0.055973
09:24:14.287	0.050195
09:24:14.587	0.056833
09:24:14.888	0.062007
09:24:15.287	0.059361
09:24:15.587	0.056787
09:24:15.987	0.057904
09:24:16.287	0.054495
09:24:16.586	0.048871
09:24:16.987	0.035756
09:24:17.287	0.042817
09:24:17.586	0.049586
09:24:17.986	0.046693
09:24:18.287	0.037808
09:24:18.586	0.046723
09:24:18.987	0.051534
09:24:19.287	0.035916
09:24:19.587	0.059766
09:24:19.987	0.053047
09:24:20.287	0.041824
09:24:20.587	0.048976
09:24:20.986	0.047122
09:24:21.286	0.044133
09:24:21.586	0.049756
09:24:21.987	0.044446
09:24:22.286	0.044441
09:24:22.587	0.045146
09:24:22.987	0.059240
09:24:23.287	0.062801
09:24:23.586	0.042279
09:24:23.987	0.047498
09:24:24.286	0.062443
09:24:24.686	0.051287
09:24:24.987	0.046306
09:24:25.387	0.052197
09:24:25.686	0.046749
09:24:26.087	0.051577
09:24:26.387	0.093311
09:24:26.686	0.226690
09:24:27.086	0.374126
09:24:27.386	0.838931
09:24:27.687	1.345699
09:24:28.087	1.874688
09:24:28.386	2.113897
09:24:28.686	2.160227
09:24:29.987	0.535970
09:24:31.286	0.251415
09:24:31.587	0.185177
09:24:31.887	0.083920
09:24:32.287	0.049440
09:24:32.587	0.031884
09:24:32.887	0.031344
09:24:33.286	0.040258
09:24:33.586	0.041841
09:24:33.988	0.030216
09:24:34.287	0.032391
09:24:34.587	0.019173
09:24:34.987	0.026694
09:24:35.287	0.021980
09:24:35.587	0.026516
09:24:35.986	0.031438
09:24:36.287	0.029321
09:24:36.587	0.035967
09:24:36.987	0.030206
09:24:37.286	0.032365
09:24:37.587	0.026666
09:24:37.987	0.036664
09:24:38.286	0.023351
09:24:38.587	0.012776
09:24:38.987	0.022133
09:24:39.287	0.030072
09:24:39.587	0.030670
09:24:39.987	0.012228
09:24:40.287	0.010324
09:24:40.587	0.017432
09:24:40.987	0.025165
09:24:41.287	0.020398
09:24:41.587	0.018675
09:24:41.986	0.025826
09:24:42.286	0.020408
09:24:42.586	0.023641
09:24:42.987	0.015981
09:24:43.286	0.024143
09:24:43.586	0.017330
09:24:43.987	0.002435
09:24:44.286	0.022437
09:24:44.588	0.028195
09:24:44.987	0.025008
09:24:45.287	0.014113
09:24:45.586	0.004890
09:24:45.987	0.012386
09:24:46.286	0.019798
09:24:46.587	0.009082
09:24:46.986	0.017652
09:24:47.287	0.023217
09:24:47.686	0.027488
09:24:47.986	0.004917
09:24:48.287	0.008894
09:24:48.687	0.017150
09:24:48.987	0.009883
09:24:49.287	0.012172
09:24:49.687	0.012774
09:24:49.987	0.013180
09:24:50.287	0.015507
09:24:50.686	0.015401
09:24:50.987	0.006974
09:24:51.288	0.013203
09:24:51.686	0.012604
09:24:51.987	0.023249
09:24:52.387	0.019920
09:24:52.687	0.016025
09:24:53.087	0.022001
09:24:53.387	0.013127
09:24:53.687	0.008544
09:24:54.087	0.016605
09:24:54.387	0.011769
09:24:54.787	0.005268
09:24:55.087	0.005648
09:24:55.487	0.012074
09:24:55.787	0.016769
09:24:56.087	0.020558
09:24:56.487	0.013373
09:24:56.786	0.015519
09:24:57.087	0.018352
09:24:57.487	-0.000287
09:24:57.786	-0.000092
09:24:58.087	0.009669
09:24:58.487	0.009380
09:24:58.786	0.010101
09:24:59.187	0.014627
09:24:59.487	0.015122
09:24:59.887	0.016423
09:25:00.186	0.007859
09:25:00.486	0.003619
09:25:00.887	0.013508
09:25:01.186	0.023671
09:25:01.587	0.014455
09:25:01.887	0.019013
09:25:02.287	0.009161
09:25:02.587	0.017476
09:25:02.887	0.019520
09:25:03.287	0.004486
09:25:03.586	0.008074
09:25:03.887	0.008066
09:25:04.287	0.012284
09:25:04.586	0.007603
09:25:04.887	0.007735
09:25:05.287	0.000945
09:25:05.587	0.003538
09:25:05.888	0.009169
09:25:06.287	0.009695
09:25:06.586	0.011335
09:25:06.887	0.008368
09:25:07.287	0.010881
09:25:07.587	0.019191
09:25:07.887	0.006121
09:25:08.287	0.004791
09:25:08.587	0.006019
09:25:08.887	0.004481
09:25:09.287	0.009606
09:25:09.586	0.007019
09:25:09.986	0.010813
09:25:10.288	0.011432
09:25:10.587	0.004478
09:25:10.986	0.001802
09:25:11.288	0.006464
09:25:11.686	0.006824
09:25:11.987	0.011670
09:25:12.287	0.003231
09:25:12.687	0.006837
09:25:12.986	0.004632
09:25:13.387	0.013583
09:25:13.687	0.008391
09:25:13.986	0.007130
09:25:14.387	0.006069
09:25:14.687	0.004154
09:25:14.987	0.000693
09:25:15.386	0.013909
09:25:15.687	0.012274
09:25:16.086	0.007334
09:25:16.387	0.005327
09:25:16.787	0.005192
09:25:17.087	-0.000374
09:25:17.487	0.000330
09:25:17.787	0.011285
09:25:18.087	0.011307
09:25:18.487	0.008545
09:25:18.787	0.023694
09:25:19.086	0.020885
09:25:19.487	0.008371
09:25:19.787	0.009016
09:25:20.186	0.007978
09:25:20.486	0.009807
09:25:20.787	0.012215
09:25:21.187	-0.003436
09:25:21.487	0.004291
09:25:21.786	0.011187
09:25:22.186	0.007099
09:25:22.486	0.016842
09:25:22.886	0.016940
09:25:23.187	0.012500
09:25:23.587	0.001156
09:25:23.886	0.005019
09:25:24.287	0.005917
09:25:24.587	0.014214
09:25:24.887	0.009194
09:25:25.286	0.012395
09:25:25.587	0.012144
09:25:25.886	0.009618
09:25:26.287	0.021531
09:25:26.587	0.020826
09:25:26.887	0.010426
09:25:27.287	0.016921
09:25:27.587	0.024283
09:25:27.888	0.015161
09:25:28.287	0.000925
09:25:28.587	0.008542
09:25:28.887	0.008649
09:25:29.286	0.012553
09:25:29.587	0.007164
09:25:29.887	0.007106
09:25:30.286	0.005414
09:25:30.587	0.008544
09:25:30.887	0.019660
09:25:31.287	0.018381
09:25:31.587	0.016637
09:25:31.887	0.012080
09:25:32.286	0.008117
09:25:32.586	0.012900
09:25:32.887	0.016384
09:25:33.287	0.013501
09:25:33.587	0.019970
09:25:33.986	0.009463
09:25:34.286	0.009468
09:25:34.686	0.012781
09:25:34.987	0.012802
09:25:35.287	0.015092
09:25:35.688	0.013122
09:25:35.986	0.015765
09:25:36.388	0.013942
09:25:36.686	0.015820
09:25:36.987	0.012966
09:25:37.387	0.017618
09:25:37.687	0.007780
09:25:37.986	0.011836
09:25:38.387	0.012732
09:25:38.686	0.014220
09:25:38.987	0.016159
09:25:39.387	0.011974
09:25:39.687	0.016862
09:25:39.987	0.012194
09:25:40.387	0.007868
09:25:40.687	0.018210
09:25:41.087	0.010388
09:25:41.387	0.007167
09:25:41.787	0.012078
09:25:42.087	0.023181
09:25:42.387	0.019350
09:25:42.787	0.020241
09:25:43.087	0.015062
09:25:43.487	0.004546
09:25:43.787	0.022494
09:25:44.088	0.020159
09:25:44.487	0.007849
09:25:44.787	0.010316
09:25:45.087	0.011950
09:25:45.486	0.013183
09:25:45.787	0.012174
09:25:46.087	0.019475
09:25:46.487	0.013622
09:25:46.787	0.002427
09:25:47.087	0.014564
09:25:47.487	0.010105
09:25:47.786	0.012421
09:25:48.187	0.008024
09:25:48.487	0.010466
09:25:48.787	0.014406
09:25:49.187	0.004952
09:25:49.487	0.007966
09:25:49.887	0.016939
09:25:50.187	0.013497
09:25:50.586	0.023393
09:25:50.886	0.016933
09:25:51.187	0.024656
09:25:51.586	0.025960
09:25:51.887	0.016377
09:25:52.187	0.019506
09:25:52.587	0.024661
09:25:52.887	0.027194
09:25:53.187	0.020986
09:25:53.587	0.019899
09:25:53.887	0.027252
09:25:54.186	0.024436
09:25:54.586	0.018756
09:25:54.887	0.009284
09:25:55.187	0.008459
09:25:55.587	0.025738
09:25:55.887	0.024378
09:25:56.187	0.027509
09:25:56.587	0.028573
09:25:56.887	0.028902
09:25:57.287	0.025484
09:25:57.588	0.024811
09:25:57.986	0.013408
09:25:58.287	0.010941
09:25:58.687	0.033714
09:25:58.987	0.029593
09:25:59.287	0.019075
09:25:59.687	0.016817
09:25:59.986	0.026574
09:26:00.286	0.033297
09:26:00.687	0.061737
09:26:00.987	0.078781
09:26:01.287	0.085776
09:26:01.687	0.096776
09:26:01.987	0.117520
09:26:02.287	0.115521
09:26:02.687	0.084021
09:26:02.987	0.055731
09:26:03.286	0.034362
09:26:03.687	0.033971
09:26:03.987	0.038750
09:26:04.287	0.030003
09:26:04.687	0.023431
09:26:04.987	0.023753
09:26:05.388	0.026963
09:26:05.688	0.026158
09:26:05.987	0.025128
09:26:06.387	0.033047
09:26:06.687	0.027507
09:26:06.987	0.024954
09:26:07.387	0.025591
09:26:07.687	0.026913
09:26:07.986	0.029720
09:26:08.387	0.033036
09:26:08.686	0.023811
09:26:09.087	0.040937
09:26:09.387	0.038295
09:26:09.787	0.031906
09:26:10.087	0.043832
09:26:10.387	0.044913
09:26:10.787	0.037944
09:26:11.087	0.029602
09:26:11.487	0.024337
09:26:11.787	0.037440
09:26:12.087	0.036376
09:26:12.487	0.018223
09:26:12.787	0.031561
09:26:13.087	0.029475
09:26:13.486	0.022102
09:26:13.787	0.019695
09:26:14.087	0.031179
09:26:14.487	0.036789
09:26:14.787	0.029709
09:26:15.087	0.025667
09:26:15.487	0.023177
09:26:15.787	0.027862
09:26:16.187	0.036875
09:26:16.487	0.043863
09:26:16.787	0.044001
09:26:17.187	0.040334
09:26:17.487	0.039108
09:26:17.887	0.034861
09:26:18.187	0.028624
09:26:18.587	0.018344
09:26:18.887	0.033827
09:26:19.187	0.034384
09:26:19.587	0.037251
09:26:19.887	0.039524
09:26:20.187	0.039552
09:26:20.587	0.045617
09:26:20.887	0.054539
09:26:21.187	0.060774
09:26:21.587	0.063504
09:26:21.887	0.076946
09:26:22.187	0.068013
09:26:22.587	0.069354
09:26:22.887	0.052289
09:26:23.187	0.050632
09:26:23.587	0.049459
09:26:23.887	0.047136
09:26:24.187	0.036729
09:26:24.587	0.039172
09:26:24.887	0.034092
09:26:25.287	0.040249
09:26:25.587	0.051626
09:26:25.887	0.049384
09:26:26.287	0.061589
09:26:26.587	0.053735
09:26:26.987	0.051004
09:26:27.287	0.052494
09:26:27.687	0.063634
09:26:27.987	0.084889
09:26:28.287	0.089747
09:26:28.687	0.085385
09:26:28.987	0.092731
09:26:29.287	0.103028
09:26:29.687	0.113727
09:26:29.987	0.109401
09:26:30.288	0.107989
09:26:30.687	0.113877
09:26:30.987	0.106929
09:26:31.287	0.116717
09:26:31.687	0.115082
09:26:31.987	0.122565
09:26:32.387	0.125218
09:26:32.687	0.132755
09:26:33.087	0.132213
09:26:33.388	0.133028
09:26:33.787	0.148310
09:26:34.087	0.134053
09:26:34.387	0.142798
09:26:34.787	0.142277
09:26:35.087	0.147651
09:26:35.388	0.152287
09:26:35.787	0.126203
09:26:36.087	0.126359
09:26:36.387	0.108412
09:26:36.787	0.086022
09:26:37.087	0.073453
09:26:37.387	0.074148
09:26:37.788	0.059644
09:26:38.087	0.050650
09:26:38.387	0.042157
09:26:38.787	0.026638
09:26:39.087	0.027561
09:26:39.487	0.025192
09:26:39.788	0.023602
09:26:40.187	0.039066
09:26:40.487	0.036778
09:26:40.887	0.037207
09:26:41.187	0.016215
09:26:41.487	0.016555
09:26:41.887	0.027509
09:26:42.187	0.020668
09:26:42.487	0.025227
09:26:42.888	0.032692
09:26:43.187	0.028595
09:26:43.487	0.025372
09:26:43.887	0.016801
09:26:44.187	0.014306
09:26:44.487	0.017190
09:26:44.888	0.035005
09:26:45.187	0.027961
09:26:45.588	0.031178
09:26:45.888	0.025836
09:26:46.287	0.018475
09:26:46.588	0.022820
09:26:46.987	0.016464
09:26:47.287	0.021429
09:26:47.587	0.014035
09:26:47.987	0.017652
09:26:48.288	0.028260
09:26:48.587	0.034451
09:26:48.987	0.021302
09:26:49.288	0.026255
09:26:49.587	0.023242
09:26:49.987	0.020068
09:26:50.287	0.010211
09:26:50.687	0.027130
09:26:50.988	0.037781
09:26:51.288	0.027866
09:26:51.687	0.029087
09:26:51.988	0.029383
09:26:52.287	0.031809
09:26:52.687	0.030582
09:26:52.987	0.037673
09:26:53.387	0.047301
09:26:53.688	0.068452
09:26:54.087	0.140186
09:26:54.387	0.269674
09:26:54.788	0.647459
09:26:55.087	1.013038
09:26:55.388	1.981241
09:26:55.787	2.498844
09:26:57.087	2.073617
09:26:57.387	0.212866
09:26:58.688	0.089886
09:26:58.987	0.062351
09:26:59.288	0.033549
09:26:59.688	0.024249
09:26:59.987	0.031463
09:27:00.287	0.035586
09:27:00.688	0.028503
09:27:00.987	0.032842
09:27:01.288	0.029473
09:27:01.687	0.027535
09:27:01.987	0.025809
09:27:02.387	0.014090
09:27:02.688	0.023029
09:27:03.087	0.031556
09:27:03.388	0.025250
09:27:03.788	0.027859
09:27:04.088	0.033245
09:27:04.388	0.017921
09:27:04.787	0.020226
09:27:05.088	0.019721
09:27:05.388	0.028508
09:27:05.787	0.014229
09:27:06.088	0.015386
09:27:06.388	0.015650
09:27:06.788	0.018873
09:27:07.088	0.016929
09:27:07.388	-0.000482
09:27:07.787	0.020269
09:27:08.088	0.018886
09:27:08.388	0.029151
09:27:08.788	0.032618
09:27:09.088	0.027837
09:27:09.387	0.024757
09:27:09.788	0.023164
09:27:10.088	0.016804
09:27:10.387	0.026576
09:27:10.787	0.026441
09:27:11.088	0.037585
09:27:11.387	0.032728
09:27:11.788	0.039479
09:27:12.087	0.056872
09:27:12.388	0.065553
09:27:12.788	0.106575
09:27:13.088	0.152162
09:27:13.488	0.248529
09:27:13.788	0.282023
09:27:14.188	0.305200
09:27:14.487	0.362637
09:27:14.888	0.367541
09:27:15.187	0.452079
09:27:15.488	0.456337
09:27:15.888	0.426764
09:27:16.188	0.459687
09:27:16.488	0.452569
09:27:16.888	0.442537
09:27:17.188	0.478861
09:27:17.588	0.459443
09:27:17.888	0.475212
09:27:18.188	0.507944
09:27:18.587	0.471392
09:27:18.887	0.450936
09:27:19.288	0.498228
09:27:19.587	0.454065
09:27:19.987	0.446381
09:27:20.288	0.448597
09:27:20.687	0.460487
09:27:20.988	0.450119
09:27:21.388	0.453704
09:27:21.688	0.447140
09:27:21.987	0.457930
09:27:22.387	0.451578
09:27:22.688	0.408994
09:27:23.088	0.408846
09:27:23.387	0.419421
09:27:23.687	0.417861
09:27:24.088	0.384841
09:27:24.388	0.376443
09:27:24.688	0.339350
09:27:25.088	0.294757
09:27:25.388	0.284826
09:27:25.688	0.257219
09:27:26.088	0.244409
09:27:26.387	0.235651
09:27:26.687	0.208313
09:27:27.088	0.190962
09:27:27.388	0.180960
09:27:27.787	0.188706
09:27:28.088	0.176556
09:27:28.489	0.165983
09:27:28.788	0.213402
09:27:29.188	0.264416
09:27:29.488	0.306181
09:27:29.888	0.363984
09:27:30.188	0.421514
09:27:30.487	0.436192
09:27:30.888	0.415004
09:27:31.188	0.390980
09:27:31.588	0.350472
09:27:31.888	0.295634
09:27:32.287	0.220959
09:27:32.588	0.196221
09:27:32.889	0.206332
09:27:33.288	0.204941
09:27:33.587	0.160302
09:27:33.988	0.150930
09:27:34.287	0.168696
09:27:34.687	0.142542
09:27:34.988	0.158476
09:27:35.388	0.147220
09:27:35.687	0.162019
09:27:35.988	0.164769
09:27:36.388	0.179420
09:27:36.687	0.160202
09:27:37.088	0.157210
09:27:37.387	0.152242
09:27:37.687	0.139870
09:27:38.088	0.124243
09:27:38.388	0.118893
09:27:38.688	0.111898
09:27:39.087	0.119550
09:27:39.388	0.114099
09:27:39.687	0.104440
09:27:40.087	0.111246
09:27:40.388	0.108488
09:27:40.687	0.133788
09:27:41.087	0.143495
09:27:41.388	0.143579
09:27:41.689	0.126058
09:27:42.087	0.143520
09:27:42.388	0.138270
09:27:42.688	0.159847
09:27:43.087	0.172754
09:27:43.388	0.191383
09:27:43.688	0.177780
09:27:44.088	0.180165
09:27:44.387	0.190102
09:27:44.688	0.208439
09:27:45.087	0.199917
09:27:45.388	0.197412
09:27:45.788	0.195546
09:27:46.087	0.191571
09:27:46.388	0.163889
09:27:46.788	0.137821
09:27:47.088	0.122175
09:27:47.388	0.130357
09:27:47.787	0.135314
09:27:48.087	0.122134
09:27:48.487	0.115076
09:27:48.788	0.111050
09:27:49.088	0.106183
09:27:49.488	0.104324
09:27:49.788	0.101122
09:27:50.088	0.105516
09:27:50.488	0.092658
09:27:50.788	0.100752
09:27:51.188	0.106601
09:27:51.487	0.125688
09:27:51.887	0.160101
09:27:52.188	0.198744
09:27:52.588	0.365236
09:27:52.888	1.047967
09:27:53.288	1.955253
09:27:53.587	3.144495
09:27:54.888	3.074227
09:27:55.188	2.704571
09:27:55.488	0.456134
09:27:56.787	0.311512
09:27:57.088	0.286448
09:27:57.388	0.189979
09:27:57.787	0.143266
09:27:58.087	0.126468
09:27:58.487	0.109705
09:27:58.788	0.107890
09:27:59.088	0.105974
09:27:59.488	0.110581
09:27:59.788	0.107770
09:28:00.188	0.100731
09:28:00.488	0.096933
09:28:00.788	0.103842
09:28:01.187	0.093548
09:28:01.488	0.097145
09:28:01.787	0.104072
09:28:02.188	0.095172
09:28:02.488	0.101777
09:28:02.788	0.098192
09:28:03.188	0.093155
09:28:03.488	0.100712
09:28:03.788	0.116700
09:28:04.188	0.135898
09:28:04.488	0.169266
09:28:04.788	0.237430
09:28:05.188	0.261363
09:28:05.487	0.325646
09:28:05.788	0.365395
09:28:06.188	0.359642
09:28:06.487	0.350113
09:28:06.887	0.307112
09:28:07.188	0.257360
09:28:07.588	0.199436
09:28:07.888	0.181490
09:28:08.287	0.136184
09:28:08.588	0.117581
09:28:08.887	0.118048
09:28:09.288	0.088406
09:28:09.587	0.092584
09:28:09.887	0.089587
09:28:10.288	0.077165
09:28:10.588	0.070080
09:28:10.887	0.071016
09:28:11.288	0.075967
09:28:11.587	0.060294
09:28:11.889	0.061486
09:28:12.288	0.061583
09:28:12.588	0.069447
09:28:12.887	0.064794
09:28:13.288	0.060658
09:28:13.588	0.063882
09:28:13.988	0.061573
09:28:14.288	0.056184
09:28:14.688	0.062037
09:28:14.988	0.067050
09:28:15.388	0.064671
09:28:15.688	0.035346
09:28:15.988	0.047096
09:28:16.387	0.057394
09:28:16.688	0.069778
09:28:16.988	0.066321
09:28:17.387	0.069336
09:28:17.688	0.052775
09:28:17.987	0.046546
09:28:18.387	0.050434
09:28:18.687	0.053444
09:28:18.988	0.058020
09:28:19.387	0.053507
09:28:19.688	0.054832
09:28:19.988	0.043218
09:28:20.387	0.051605
09:28:20.688	0.067758
09:28:21.088	0.062336
09:28:21.388	0.065920
09:28:21.787	0.071757
09:28:22.088	0.060214
09:28:22.487	0.056770
09:28:22.787	0.046780
09:28:23.088	0.032927
09:28:23.488	0.048748
09:28:23.788	0.042088
09:28:24.087	0.045081
09:28:24.488	0.049508
09:28:24.788	0.067529
09:28:25.087	0.062157
09:28:25.488	0.047297
09:28:25.787	0.051808
09:28:26.088	0.045092
09:28:26.488	0.046424
09:28:26.788	0.045983
09:28:27.088	0.062731
09:28:27.488	0.064629
09:28:27.788	0.050305
09:28:28.188	0.057602
09:28:28.487	0.065692
09:28:28.788	0.072899
09:28:29.188	0.062134
09:28:29.488	0.052732
09:28:29.788	0.042868
09:28:30.188	0.073474
09:28:30.488	0.080229
09:28:30.788	0.083383
09:28:31.188	0.095516
09:28:31.487	0.107326
09:28:31.888	0.157270
09:28:32.188	0.182326
09:28:32.588	0.234806
09:28:32.888	0.259668
09:28:33.188	0.277845
09:28:33.588	0.315743
09:28:33.887	0.291571
09:28:34.288	0.263565
09:28:34.587	0.251650
09:28:34.889	0.231155
09:28:35.288	0.203247
09:28:35.588	0.148911
09:28:35.988	0.122008
09:28:36.287	0.106557
09:28:36.588	0.074472
09:28:36.988	0.072731
09:28:37.288	0.067399
09:28:37.688	0.071491
09:28:37.988	0.053786
09:28:38.288	0.058579
09:28:38.688	0.058341
09:28:38.988	0.055098
09:28:39.387	0.049119
09:28:39.688	0.042408
09:28:39.988	0.053435
09:28:40.388	0.057271
09:28:40.688	0.053235
09:28:40.987	0.049427
09:28:41.388	0.051121
09:28:41.687	0.050572
09:28:42.088	0.049805
09:28:42.388	0.039521
09:28:42.788	0.037008
09:28:43.088	0.040990
09:28:43.488	0.050704
09:28:43.788	0.049173
09:28:44.087	0.048598
09:28:44.488	0.044459
09:28:44.788	0.051305
09:28:45.087	0.052475
09:28:45.488	0.045345
09:28:45.788	0.044413
09:28:46.088	0.040719
09:28:46.487	0.045207
09:28:46.788	0.047982
09:28:47.088	0.040495
09:28:47.488	0.042238
09:28:47.788	0.048090
09:28:48.088	0.044953
09:28:48.488	0.039821
09:28:48.787	0.037821
09:28:49.188	0.039921
09:28:49.488	0.037934
09:28:49.888	0.051409
09:28:50.188	0.047318
09:28:50.588	0.042397
09:28:50.888	0.042152
09:28:51.188	0.043156
09:28:51.588	0.027000
09:28:51.888	0.027186
09:28:52.188	0.043441
09:28:52.587	0.043330
09:28:52.888	0.044921
09:28:53.188	0.034942
09:28:53.588	0.046159
09:28:53.888	0.039344
09:28:54.187	0.038540
09:28:54.588	0.044018
09:28:54.888	0.041576
09:28:55.188	0.040033
09:28:55.588	0.054696
09:28:55.887	0.037040
09:28:56.188	0.044918
09:28:56.588	0.043439
09:28:56.888	0.045523
09:28:57.288	0.041659
09:28:57.588	0.047228
09:28:57.988	0.044066
09:28:58.288	0.050420
09:28:58.688	0.034972
09:28:58.988	0.039676
09:28:59.288	0.048787
09:28:59.688	0.038365
09:28:59.987	0.040450
09:29:00.388	0.042589
09:29:00.688	0.044972
09:29:00.988	0.049885
09:29:01.388	0.033804
09:29:01.688	0.042405
09:29:01.988	0.039558
09:29:02.388	0.034120
09:29:02.688	0.051108
09:29:03.088	0.044984
09:29:03.388	0.040084
09:29:03.788	0.028107
09:29:04.088	0.040618
09:29:04.387	0.040202
09:29:04.788	0.046902
09:29:05.088	0.054535
09:29:05.488	0.040050
09:29:05.788	0.033553
09:29:06.088	0.034294
09:29:06.487	0.028448
09:29:06.788	0.048034
09:29:07.088	0.050860
09:29:07.488	0.049652
09:29:07.788	0.046337
09:29:08.088	0.038262
09:29:08.488	0.035328
09:29:08.788	0.038093
09:29:09.088	0.033559
09:29:09.488	0.032712
09:29:09.788	0.051988
09:29:10.188	0.044364
09:29:10.488	0.035844
09:29:10.888	0.019016
09:29:11.188	0.024675
09:29:11.588	0.030383
09:29:11.888	0.036176
09:29:12.188	0.044520
09:29:12.588	0.034888
09:29:12.888	0.039993
09:29:13.187	0.034569
09:29:13.587	0.037062
09:29:13.887	0.042833
09:29:14.188	0.049688
09:29:14.588	0.040637
09:29:14.888	0.017039
09:29:15.187	0.006157
09:29:15.588	0.036055
09:29:15.888	0.014039
09:29:16.188	0.034281
09:29:16.588	0.035844
09:29:16.888	0.024824
09:29:17.188	0.027120
09:29:17.588	0.042682
09:29:17.888	0.043297
09:29:18.188	0.027304
09:29:18.587	0.023145
09:29:18.887	0.047998
09:29:19.188	0.032909
09:29:19.588	0.044998
09:29:19.887	0.040585
09:29:20.188	0.028338
09:29:20.588	0.020230
09:29:20.888	0.038461
09:29:21.289	0.040746
09:29:21.588	0.021457
09:29:21.988	0.036980
09:29:22.287	0.038434
09:29:22.588	0.045914
09:29:22.988	0.036357
09:29:23.288	0.044592
09:29:23.688	0.035730
09:29:23.988	0.024777
09:29:24.287	0.033332
09:29:24.688	0.029600
09:29:24.988	0.038559
09:29:25.388	0.041538
09:29:25.688	0.026589
09:29:26.088	0.019903
09:29:26.388	0.018362
09:29:26.688	0.014967
09:29:27.088	0.001513
09:29:27.388	0.045265
09:29:27.688	0.043576
09:29:28.088	0.033850
09:29:28.388	0.033530
09:29:28.689	0.037744
09:29:29.088	0.044202
09:29:29.388	0.043085
09:29:29.788	0.025840
09:29:30.088	0.030299
09:29:30.388	0.030458
09:29:30.788	0.031602
09:29:31.088	0.025864
09:29:31.388	0.030612
09:29:31.789	0.031260
09:29:32.088	0.030656
09:29:32.388	0.026693
09:29:32.788	0.031685
09:29:33.088	0.034121
09:29:33.388	0.031314
09:29:33.788	0.029732
09:29:34.088	0.027180
09:29:34.388	0.035183
09:29:34.788	0.043951
09:29:35.088	0.036211
09:29:35.488	0.040992
09:29:35.788	0.039255
09:29:36.088	0.037744
09:29:36.488	0.025940
09:29:36.788	0.011853
09:29:37.089	0.005481
09:29:37.488	0.034374
09:29:37.788	0.033611
09:29:38.188	0.037840
09:29:38.488	0.036893
09:29:38.889	0.024459
09:29:39.188	0.025828
09:29:39.588	0.025081
09:29:39.888	0.032158
09:29:40.288	0.029008
09:29:40.589	0.034973
09:29:40.988	0.035871
09:29:41.288	0.050982
09:29:41.588	0.051312
09:29:41.989	0.038121
09:29:42.288	0.044226
09:29:42.688	0.021328
09:29:42.988	0.032980
09:29:43.288	0.029619
09:29:43.688	0.024995
09:29:43.988	0.027201
09:29:44.288	0.031700
09:29:44.688	0.028036
09:29:44.989	0.027145
09:29:45.288	0.033767
09:29:45.688	0.031381
09:29:45.989	0.035826
09:29:46.288	0.044710
09:29:46.689	0.045431
09:29:46.988	0.045980
09:29:47.289	0.048076
09:29:47.689	0.047506
09:29:47.988	0.046157
09:29:48.289	0.043156
09:29:48.688	0.042094
09:29:48.988	0.020823
09:29:49.388	0.034887
09:29:49.688	0.024007
09:29:50.088	0.025425
09:29:50.389	0.018292
09:29:50.688	0.015229
09:29:51.089	0.013615
09:29:51.388	0.030490
09:29:51.789	0.025146
09:29:52.088	0.026268
09:29:52.388	0.032327
09:29:52.788	0.015542
09:29:53.088	0.014346
09:29:53.489	0.023997
09:29:53.789	0.018138
09:29:54.188	0.022694
09:29:54.488	0.017439
09:29:54.788	0.021021
09:29:55.188	0.025444
09:29:55.489	0.020431
09:29:55.889	0.019513
09:29:56.189	0.015635
09:29:56.589	0.026381
09:29:56.888	0.023122
09:29:57.289	-0.017029
09:29:57.589	-0.019616
09:29:57.888	0.026931
09:29:58.288	0.029316
09:29:58.589	0.024545
09:29:58.988	0.026893
09:29:59.289	0.016632
09:29:59.689	0.019362
09:29:59.989	0.027047
09:30:00.388	0.021398
09:30:00.689	0.033971
09:30:00.988	0.005488
09:30:01.389	0.012801
09:30:01.688	0.012478
09:30:01.988	0.019548
09:30:02.389	0.009538
09:30:02.689	0.011545
09:30:03.089	0.023328
09:30:03.388	0.007985
09:30:03.789	0.006712
09:30:04.089	0.016320
09:30:04.389	0.020612
09:30:04.788	0.003834
09:30:05.089	0.016985
09:30:05.489	0.004940
09:30:05.788	0.018543
09:30:06.188	0.015198
09:30:06.488	0.019265
09:30:06.889	0.017906
09:30:07.189	0.011719
09:30:07.489	0.023691
09:30:07.889	0.026102
09:30:08.188	0.020185
09:30:08.489	0.021373
09:30:08.889	0.033037
09:30:09.188	0.026589
09:30:09.489	0.029652
09:30:09.888	0.010418
09:30:10.189	0.002105
09:30:10.588	0.015938
09:30:10.889	0.024906
09:30:11.189	0.054459
09:30:11.589	0.045043
09:30:11.888	0.059382
09:30:12.288	0.073347
09:30:12.589	0.081598
09:30:12.989	0.079119
09:30:13.288	0.062939
09:30:13.589	0.065508
09:30:13.988	0.063070
09:30:14.289	0.046893
09:30:14.689	0.040017
09:30:14.988	0.035666
09:30:15.389	0.046184
09:30:15.689	0.036615
09:30:16.089	0.037825
09:30:16.388	0.053799
09:30:16.688	0.049861
09:30:17.088	0.038374
09:30:17.388	0.044517
09:30:17.789	0.058937
09:30:18.089	0.072412
09:30:18.389	0.078003
09:30:18.789	0.111125
09:30:19.088	0.124514
09:30:19.489	0.152926
09:30:19.789	0.214901
09:30:20.188	0.290098
09:30:20.489	0.341573
09:30:20.789	0.499157
09:30:21.188	0.621040
09:30:21.488	0.664085
09:30:21.890	0.724488
09:30:22.189	0.673066
09:30:22.489	0.617999
09:30:22.889	0.480202
09:30:23.189	0.402637
09:30:23.488	0.274934
09:30:23.889	0.175276
09:30:24.189	0.149162
09:30:24.489	0.106489
09:30:24.889	0.072956
09:30:25.188	0.065755
09:30:25.489	0.046326
09:30:25.888	0.039166
09:30:26.188	0.036813
09:30:26.589	0.044245
09:30:26.888	0.035017
09:30:27.288	0.025797
09:30:27.589	0.020036
09:30:27.889	0.030206
09:30:28.289	0.026942
09:30:28.589	0.029737
09:30:28.889	0.024254
09:30:29.288	0.041204
09:30:29.589	0.044908
09:30:29.889	0.035930
09:30:30.289	0.016408
09:30:30.589	0.036098
09:30:30.888	0.049699
09:30:31.289	0.037921
09:30:31.589	0.044592
09:30:31.889	0.044370
09:30:32.288	0.044392
09:30:32.589	0.035840
09:30:32.889	0.030749
09:30:33.288	0.022403
09:30:33.589	0.025807
09:30:33.989	0.016310
09:30:34.289	0.016036
09:30:34.589	0.017476
09:30:34.989	0.013933
09:30:35.288	0.012292
09:30:35.689	0.007755
09:30:35.988	0.020265
09:30:36.389	0.010843
09:30:36.688	0.024041
09:30:36.989	0.005231
09:30:37.388	0.005383
09:30:37.688	0.008530
09:30:38.089	0.011340
09:30:38.389	0.010370
09:30:38.789	0.010350
09:30:39.089	0.010718
09:30:39.388	0.011388
09:30:39.789	0.017572
09:30:40.089	0.006433
09:30:40.488	0.002007
09:30:40.788	0.006898
09:30:41.189	0.006632
09:30:41.489	-0.003421
09:30:41.789	0.007798
09:30:42.188	0.005789
09:30:42.490	0.001688
09:30:42.789	0.000223
09:30:43.188	0.014562
09:30:43.488	0.004776
09:30:43.789	0.000549
09:30:44.189	0.001955
09:30:44.488	0.006024
09:30:44.788	-0.006173
09:30:45.188	0.013727
09:30:45.489	0.014833
09:30:45.888	0.000974
09:30:46.189	0.002842
09:30:46.489	0.007035
09:30:46.889	0.007773
09:30:47.189	-0.004639
09:30:47.488	0.001052
09:30:47.889	0.014261
09:30:48.288	0.016850
09:30:48.589	0.010895
09:30:48.889	0.011961
09:30:49.288	-0.002265
09:30:49.588	-0.002562