Chart Recorder Data File Tue, Sep 24, 2024 9:43 AM
Time (s)	CH1 (V)  
09:35:21.764	-0.061012
09:35:22.565	-0.061143
09:35:22.865	-0.061700
09:35:23.165	-0.060823
09:35:23.565	-0.061360
09:35:23.865	-0.061555
09:35:24.165	-0.061353
09:35:24.565	-0.062155
09:35:24.864	-0.062683
09:35:25.166	-0.061990
09:35:25.565	-0.062128
09:35:25.865	-0.062951
09:35:26.165	-0.060978
09:35:26.565	-0.060583
09:35:26.865	-0.060023
09:35:27.265	-0.060943
09:35:27.565	-0.060912
09:35:27.865	-0.061024
09:35:28.264	-0.058517
09:35:28.565	-0.059228
09:35:28.965	-0.060306
09:35:29.265	-0.058599
09:35:29.665	-0.061136
09:35:29.965	-0.062204
09:35:30.365	-0.061072
09:35:30.665	-0.059828
09:35:30.965	-0.060015
09:35:31.365	-0.059941
09:35:31.665	-0.061186
09:35:31.965	-0.061008
09:35:32.365	-0.060094
09:35:32.665	-0.062032
09:35:33.065	-0.060448
09:35:33.365	-0.058976
09:35:33.766	-0.060672
09:35:34.065	-0.061496
09:35:34.465	-0.060587
09:35:34.765	-0.060651
09:35:35.165	-0.060540
09:35:35.465	-0.060830
09:35:35.865	-0.057921
09:35:36.165	-0.060556
09:35:36.565	-0.058272
09:35:36.865	-0.057629
09:35:37.165	-0.059308
09:35:37.565	-0.058061
09:35:37.865	-0.058574
09:35:38.165	-0.058915
09:35:38.565	-0.059333
09:35:38.865	-0.059116
09:35:39.165	-0.059086
09:35:39.565	-0.059857
09:35:39.865	-0.059553
09:35:40.265	-0.059695
09:35:40.565	-0.057932
09:35:40.965	-0.060076
09:35:41.265	-0.057495
09:35:41.665	-0.058508
09:35:41.965	-0.058121
09:35:42.265	-0.057406
09:35:42.665	-0.056832
09:35:42.965	-0.057294
09:35:43.365	-0.057829
09:35:43.665	-0.059069
09:35:44.065	-0.059630
09:35:44.365	-0.059257
09:35:44.765	-0.057143
09:35:45.066	-0.059190
09:35:45.365	-0.058311
09:35:45.765	-0.057404
09:35:46.065	-0.057292
09:35:46.465	-0.057320
09:35:46.765	-0.057790
09:35:47.165	-0.058471
09:35:47.465	-0.056538
09:35:47.865	-0.056033
09:35:48.165	-0.056226
09:35:48.565	-0.056264
09:35:48.865	-0.055972
09:35:49.165	-0.057888
09:35:49.565	-0.057916
09:35:49.865	-0.055634
09:35:50.265	-0.056351
09:35:50.565	-0.056250
09:35:50.966	-0.056430
09:35:51.265	-0.056395
09:35:51.665	-0.054244
09:35:51.965	-0.053758
09:35:52.365	-0.056198
09:35:52.665	-0.054962
09:35:53.065	-0.055326
09:35:53.365	-0.054955
09:35:53.765	-0.053959
09:35:54.065	-0.055364
09:35:54.465	-0.055245
09:35:54.765	-0.055408
09:35:55.066	-0.054014
09:35:55.465	-0.054068
09:35:55.765	-0.054760
09:35:56.165	-0.055909
09:35:56.465	-0.053812
09:35:56.865	-0.054070
09:35:57.165	-0.053999
09:35:57.565	-0.054977
09:35:57.865	-0.055195
09:35:58.165	-0.054264
09:35:58.565	-0.054369
09:35:58.865	-0.052930
09:35:59.265	-0.055756
09:35:59.565	-0.053924
09:35:59.965	-0.053644
09:36:00.265	-0.052421
09:36:00.665	-0.053843
09:36:00.966	-0.054182
09:36:01.266	-0.054122
09:36:01.665	-0.054588
09:36:01.965	-0.055729
09:36:02.365	-0.052697
09:36:02.665	-0.054055
09:36:03.065	-0.053739
09:36:03.365	-0.052737
09:36:03.765	-0.052871
09:36:04.065	-0.052822
09:36:04.466	-0.051775
09:36:04.765	-0.053738
09:36:05.165	-0.053212
09:36:05.466	-0.053559
09:36:05.865	-0.053499
09:36:06.165	-0.055116
09:36:06.565	-0.056524
09:36:06.865	-0.055327
09:36:07.165	-0.053049
09:36:07.565	-0.055738
09:36:07.865	-0.056495
09:36:08.265	-0.052076
09:36:08.565	-0.052866
09:36:08.965	-0.053756
09:36:09.265	-0.052718
09:36:09.665	-0.053752
09:36:09.965	-0.055575
09:36:10.365	-0.053942
09:36:10.665	-0.052267
09:36:11.065	-0.054807
09:36:11.365	-0.053218
09:36:11.765	-0.055949
09:36:12.065	-0.052890
09:36:12.365	-0.053615
09:36:12.765	-0.050458
09:36:13.065	-0.053515
09:36:13.465	-0.054964
09:36:13.765	-0.054424
09:36:14.166	-0.053184
09:36:14.465	-0.049017
09:36:14.865	-0.051891
09:36:15.165	-0.051700
09:36:15.565	-0.048707
09:36:15.865	-0.049273
09:36:16.265	-0.049183
09:36:16.565	-0.048880
09:36:16.965	-0.046454
09:36:17.265	-0.041546
09:36:17.665	-0.023070
09:36:17.965	0.015150
09:36:18.265	0.217566
09:36:18.665	0.615603
09:36:18.966	1.010940
09:36:19.365	1.274635
09:36:19.666	1.387138
09:36:20.065	1.568741
09:36:20.365	1.648018
09:36:20.765	1.597554
09:36:21.065	1.542400
09:36:21.365	1.334818
09:36:21.765	1.040011
09:36:22.066	0.904203
09:36:22.465	0.621088
09:36:22.765	0.404122
09:36:23.165	0.211105
09:36:23.465	0.142047
09:36:23.866	0.041403
09:36:24.165	-0.015452
09:36:24.565	-0.043859
09:36:24.865	-0.046749
09:36:25.265	-0.052044
09:36:25.566	-0.050850
09:36:25.965	-0.050345
09:36:26.266	-0.054426
09:36:26.665	-0.054465
09:36:26.965	-0.053344
09:36:27.265	-0.055932
09:36:27.665	-0.054326
09:36:27.965	-0.054407
09:36:28.366	-0.056403
09:36:28.665	-0.057635
09:36:29.065	-0.057088
09:36:29.366	-0.056259
09:36:29.765	-0.057006
09:36:30.065	-0.056318
09:36:30.365	-0.056241
09:36:30.766	-0.057594
09:36:31.065	-0.056538
09:36:31.466	-0.057046
09:36:31.765	-0.056567
09:36:32.165	-0.057476
09:36:32.465	-0.057699
09:36:32.865	-0.056461
09:36:33.165	-0.059655
09:36:33.565	-0.059262
09:36:33.866	-0.059314
09:36:34.165	-0.059783
09:36:34.565	-0.058408
09:36:34.965	-0.058856
09:36:35.265	-0.057904
09:36:35.666	-0.060058
09:36:35.965	-0.058416
09:36:36.365	-0.060285
09:36:36.666	-0.058697
09:36:37.065	-0.059234
09:36:37.365	-0.060156
09:36:37.765	-0.058729
09:36:38.065	-0.058655
09:36:38.465	-0.058448
09:36:38.765	-0.060248
09:36:39.166	-0.061170
09:36:39.465	-0.060596
09:36:39.865	-0.060833
09:36:40.165	-0.062982
09:36:40.565	-0.061062
09:36:40.866	-0.060299
09:36:41.265	-0.059649
09:36:41.566	-0.060566
09:36:41.966	-0.061246
09:36:42.265	-0.060536
09:36:42.665	-0.059632
09:36:42.965	-0.059565
09:36:43.366	-0.058576
09:36:43.666	-0.059719
09:36:44.065	-0.060072
09:36:44.365	-0.058247
09:36:44.765	-0.059800
09:36:45.065	-0.059702
09:36:45.465	-0.059002
09:36:45.765	-0.061366
09:36:46.165	-0.059489
09:36:46.465	-0.060566
09:36:46.766	-0.060190
09:36:47.165	-0.061142
09:36:47.466	-0.059346
09:36:47.865	-0.060832
09:36:48.165	-0.060649
09:36:48.465	-0.060634
09:36:48.865	-0.060083
09:36:49.165	-0.061390
09:36:49.566	-0.060016
09:36:49.866	-0.060318
09:36:50.265	-0.062629
09:36:50.565	-0.060852
09:36:50.965	-0.061920
09:36:51.265	-0.061488
09:36:51.666	-0.060376
09:36:51.965	-0.059912
09:36:52.366	-0.061291
09:36:52.665	-0.063828
09:36:53.065	-0.060291
09:36:53.365	-0.061694
09:36:53.665	-0.060956
09:36:54.066	-0.061574
09:36:54.365	-0.059120
09:36:54.765	-0.059251
09:36:55.066	-0.062598
09:36:55.465	-0.062370
09:36:55.765	-0.060909
09:36:56.165	-0.060596
09:36:56.466	-0.059488
09:36:56.865	-0.059700
09:36:57.166	-0.059264
09:36:57.465	-0.061227
09:36:57.865	-0.061381
09:36:58.166	-0.061727
09:36:58.566	-0.059503
09:36:58.865	-0.060595
09:36:59.265	-0.060916
09:36:59.565	-0.060482
09:36:59.966	-0.060694
09:37:00.265	-0.060230
09:37:00.665	-0.062633
09:37:00.966	-0.061063
09:37:01.365	-0.060033
09:37:01.665	-0.059143
09:37:02.065	-0.062091
09:37:02.366	-0.060596
09:37:02.765	-0.061913
09:37:03.066	-0.060478
09:37:03.465	-0.061525
09:37:03.766	-0.060773
09:37:04.166	-0.061823
09:37:04.465	-0.062696
09:37:04.865	-0.060511
09:37:05.165	-0.060932
09:37:05.565	-0.061239
09:37:05.866	-0.060813
09:37:06.265	-0.061729
09:37:06.566	-0.061762
09:37:06.965	-0.061041
09:37:07.265	-0.061074
09:37:07.665	-0.060852
09:37:07.965	-0.060570
09:37:08.366	-0.061138
09:37:08.665	-0.061242
09:37:09.065	-0.061830
09:37:09.366	-0.061262
09:37:09.766	-0.060840
09:37:10.066	-0.061624
09:37:10.465	-0.062556
09:37:10.766	-0.060625
09:37:11.166	-0.060216
09:37:11.465	-0.060283
09:37:11.866	-0.060615
09:37:12.165	-0.060887
09:37:12.566	-0.061309
09:37:12.865	-0.061494
09:37:13.266	-0.060186
09:37:13.566	-0.060384
09:37:13.866	-0.061614
09:37:14.265	-0.060598
09:37:14.565	-0.060811
09:37:14.966	-0.060057
09:37:15.266	-0.061529
09:37:15.665	-0.061146
09:37:15.965	-0.061421
09:37:16.366	-0.061594
09:37:16.666	-0.060811
09:37:17.066	-0.060850
09:37:17.366	-0.062063
09:37:17.766	-0.061750
09:37:18.065	-0.059807
09:37:18.466	-0.061452
09:37:18.765	-0.060940
09:37:19.166	-0.061760
09:37:19.465	-0.061877
09:37:19.766	-0.060367
09:37:20.166	-0.061077
09:37:20.466	-0.061748
09:37:20.866	-0.061732
09:37:21.166	-0.061242
09:37:21.566	-0.060781
09:37:21.866	-0.059878
09:37:22.266	-0.059919
09:37:22.565	-0.061172
09:37:22.966	-0.059453
09:37:23.266	-0.060785
09:37:23.666	-0.060516
09:37:23.966	-0.061651
09:37:24.366	-0.060752
09:37:24.666	-0.060996
09:37:25.066	-0.059876
09:37:25.366	-0.059955
09:37:25.766	-0.061921
09:37:26.066	-0.061360
09:37:26.366	-0.060926
09:37:26.766	-0.060920
09:37:27.066	-0.061283
09:37:27.465	-0.060195
09:37:27.766	-0.060225
09:37:28.065	-0.060522
09:37:28.466	-0.059591
09:37:28.766	-0.058575
09:37:29.166	-0.059134
09:37:29.466	-0.060725
09:37:29.866	-0.060946
09:37:30.166	-0.060949
09:37:30.566	-0.059928
09:37:30.866	-0.059534
09:37:31.265	-0.059420
09:37:31.565	-0.059300
09:37:31.866	-0.059611
09:37:32.266	-0.060142
09:37:32.566	-0.059345
09:37:32.966	-0.059696
09:37:33.266	-0.061859
09:37:33.666	-0.063232
09:37:33.965	-0.059294
09:37:34.366	-0.059214
09:37:34.666	-0.059991
09:37:35.066	-0.061446
09:37:35.366	-0.059700
09:37:35.766	-0.057846
09:37:36.065	-0.059072
09:37:36.466	-0.060310
09:37:36.766	-0.060356
09:37:37.066	-0.060435
09:37:37.466	-0.059443
09:37:37.766	-0.059506
09:37:38.166	-0.059678
09:37:38.467	-0.060637
09:37:38.766	-0.060075
09:37:39.166	-0.059755
09:37:39.466	-0.058831
09:37:39.865	-0.060727
09:37:40.166	-0.058691
09:37:40.566	-0.057724
09:37:40.866	-0.059375
09:37:41.266	-0.058685
09:37:41.566	-0.059371
09:37:41.966	-0.057901
09:37:42.266	-0.056141
09:37:42.666	-0.057845
09:37:42.966	-0.058470
09:37:43.367	-0.058675
09:37:43.666	-0.058020
09:37:44.066	-0.058514
09:37:44.466	-0.058087
09:37:44.765	-0.058769
09:37:45.166	-0.058955
09:37:45.466	-0.057872
09:37:45.866	-0.059391
09:37:46.166	-0.059351
09:37:46.566	-0.058851
09:37:46.866	-0.058509
09:37:47.166	-0.058340
09:37:47.567	-0.058858
09:37:47.866	-0.058857
09:37:48.265	-0.057709
09:37:48.566	-0.058858
09:37:48.966	-0.059468
09:37:49.266	-0.058511
09:37:49.666	-0.057060
09:37:49.966	-0.057306
09:37:50.366	-0.056462
09:37:50.666	-0.055561
09:37:51.066	-0.053929
09:37:51.366	-0.054751
09:37:51.766	-0.053153
09:37:52.066	-0.053023
09:37:52.466	-0.053105
09:37:52.766	-0.050507
09:37:53.166	-0.053809
09:37:53.466	-0.053787
09:37:53.866	-0.054885
09:37:54.166	-0.058006
09:37:54.566	-0.057640
09:37:54.865	-0.056316
09:37:55.166	-0.057947
09:37:55.566	-0.057047
09:37:55.866	-0.057037
09:37:56.266	-0.059020
09:37:56.566	-0.057490
09:37:56.966	-0.057007
09:37:57.266	-0.058379
09:37:57.666	-0.058797
09:37:57.966	-0.058614
09:37:58.267	-0.059128
09:37:58.666	-0.055868
09:37:58.966	-0.057529
09:37:59.366	-0.057299
09:37:59.666	-0.058033
09:37:59.966	-0.056812
09:38:00.366	-0.056626
09:38:00.666	-0.056660
09:38:01.066	-0.056946
09:38:01.366	-0.056465
09:38:01.766	-0.056256
09:38:02.066	-0.054050
09:38:02.466	-0.051877
09:38:02.766	-0.050314
09:38:03.166	-0.050401
09:38:03.466	-0.049492
09:38:03.866	-0.047635
09:38:04.166	-0.048992
09:38:04.566	-0.051568
09:38:04.867	-0.050151
09:38:05.165	-0.052894
09:38:05.566	-0.053200
09:38:05.866	-0.055531
09:38:06.166	-0.056042
09:38:06.565	-0.056720
09:38:06.866	-0.055775
09:38:07.166	-0.055705
09:38:07.566	-0.055081
09:38:07.866	-0.055745
09:38:08.266	-0.054933
09:38:08.566	-0.055605
09:38:08.966	-0.055179
09:38:09.266	-0.054100
09:38:09.666	-0.054200
09:38:09.965	-0.053614
09:38:10.366	-0.054727
09:38:10.666	-0.054407
09:38:10.966	-0.054991
09:38:11.366	-0.052141
09:38:11.666	-0.051598
09:38:12.066	-0.050666
09:38:12.366	-0.050343
09:38:12.766	-0.049260
09:38:13.066	-0.050725
09:38:13.466	-0.051718
09:38:13.766	-0.051834
09:38:14.166	-0.052011
09:38:14.466	-0.053723
09:38:14.866	-0.052741
09:38:15.166	-0.052886
09:38:15.566	-0.053738
09:38:15.866	-0.053005
09:38:16.166	-0.049246
09:38:16.566	-0.046796
09:38:16.865	-0.044506
09:38:17.266	-0.046101
09:38:17.566	-0.044662
09:38:17.966	-0.043627
09:38:18.266	-0.042693
09:38:18.666	-0.040868
09:38:18.966	-0.043176
09:38:19.366	-0.044736
09:38:19.666	-0.045698
09:38:20.066	-0.046840
09:38:20.366	-0.043920
09:38:20.766	-0.045097
09:38:21.066	-0.045204
09:38:21.366	-0.043143
09:38:21.765	-0.044175
09:38:22.066	-0.041850
09:38:22.366	-0.043076
09:38:22.766	-0.042031
09:38:23.066	-0.040710
09:38:23.466	-0.038696
09:38:23.766	-0.041203
09:38:24.166	-0.040272
09:38:24.466	-0.039374
09:38:24.866	-0.035920
09:38:25.166	-0.035955
09:38:25.566	-0.036169
09:38:25.866	-0.036276
09:38:26.266	-0.036920
09:38:26.566	-0.035821
09:38:26.966	-0.037474
09:38:27.266	-0.038990
09:38:27.666	-0.040616
09:38:27.966	-0.042099
09:38:28.366	-0.044848
09:38:28.666	-0.046446
09:38:29.066	-0.048209
09:38:29.366	-0.050465
09:38:29.766	-0.053711
09:38:30.066	-0.054946
09:38:30.366	-0.054852
09:38:30.766	-0.055056
09:38:31.066	-0.055549
09:38:31.366	-0.056778
09:38:31.766	-0.057703
09:38:32.066	-0.055819
09:38:32.367	-0.057206
09:38:32.766	-0.055780
09:38:33.066	-0.056428
09:38:33.466	-0.054405
09:38:33.766	-0.054953
09:38:34.166	-0.054883
09:38:34.466	-0.055714
09:38:34.866	-0.056431
09:38:35.166	-0.055076
09:38:35.566	-0.055415
09:38:35.867	-0.054966
09:38:36.166	-0.055652
09:38:36.566	-0.055227
09:38:36.866	-0.056029
09:38:37.166	-0.054482
09:38:37.566	-0.057167
09:38:37.866	-0.056198
09:38:38.166	-0.057473
09:38:38.566	-0.056234
09:38:38.866	-0.055555
09:38:39.165	-0.054600
09:38:39.567	-0.054250
09:38:39.866	-0.053823
09:38:40.265	-0.055220
09:38:40.566	-0.055459
09:38:40.966	-0.055047
09:38:41.266	-0.054821
09:38:41.666	-0.055569
09:38:41.966	-0.055395
09:38:42.366	-0.053209
09:38:42.666	-0.051294
09:38:43.066	-0.052649
09:38:43.366	-0.053224
09:38:43.765	-0.052374
09:38:44.066	-0.046914
09:38:44.366	-0.039953
09:38:44.766	-0.034034
09:38:45.066	-0.012727
09:38:45.466	0.013374
09:38:45.866	0.170341
09:38:46.166	0.420693
09:38:46.466	1.502702
09:38:46.866	2.179116
09:38:47.166	1.866035
09:38:47.566	1.566416
09:38:47.866	1.051216
09:38:48.166	0.745644
09:38:48.567	0.603282
09:38:48.866	0.539272
09:38:49.266	0.461398
09:38:49.566	0.291272
09:38:49.866	0.187090
09:38:50.267	0.030641
09:38:50.566	-0.028050
09:38:50.966	-0.041845
09:38:51.266	-0.046597
09:38:51.567	-0.051066
09:38:51.966	-0.053702
09:38:52.266	-0.052169
09:38:52.666	-0.051540
09:38:52.966	-0.053725
09:38:53.266	-0.053190
09:38:53.666	-0.052851
09:38:53.966	-0.052540
09:38:54.366	-0.055402
09:38:54.666	-0.054479
09:38:55.066	-0.053112
09:38:55.366	-0.054746
09:38:55.766	-0.054007
09:38:56.066	-0.056230
09:38:56.466	-0.054371
09:38:56.767	-0.054457
09:38:57.166	-0.054284
09:38:57.466	-0.056272
09:38:57.866	-0.055523
09:38:58.166	-0.056189
09:38:58.466	-0.056088
09:38:58.866	-0.055749
09:38:59.166	-0.055547
09:38:59.466	-0.055335
09:38:59.866	-0.056601
09:39:00.166	-0.055140
09:39:00.466	-0.057333
09:39:00.866	-0.057749
09:39:01.166	-0.057665
09:39:01.567	-0.058213
09:39:01.866	-0.056660
09:39:02.266	-0.055720
09:39:02.566	-0.053267
09:39:02.966	-0.047981
09:39:03.266	-0.045797
09:39:03.666	-0.038558
09:39:03.966	-0.028667
09:39:04.266	-0.019304
09:39:04.666	-0.011981
09:39:04.966	-0.003496
09:39:05.366	0.007350
09:39:05.666	0.011361
09:39:06.066	0.018772
09:39:06.366	0.021181
09:39:06.666	0.026426
09:39:07.066	0.032569
09:39:07.366	0.030233
09:39:07.666	0.027753
09:39:08.066	0.030910
09:39:08.367	0.029498
09:39:08.766	0.024963
09:39:09.066	0.028908
09:39:09.366	0.028034
09:39:09.766	0.028379
09:39:10.066	0.021445
09:39:10.466	0.022925
09:39:10.767	0.021113
09:39:11.066	0.020757
09:39:11.467	0.017390
09:39:11.766	0.016687
09:39:12.167	0.014955
09:39:12.466	0.015383
09:39:12.866	0.013549
09:39:13.166	0.019390
09:39:13.466	0.010497
09:39:13.866	0.012923
09:39:14.167	0.015496
09:39:14.566	0.015440
09:39:14.866	0.022219
09:39:15.267	0.031919
09:39:15.566	0.035898
09:39:15.966	0.045601
09:39:16.266	0.048573
09:39:16.567	0.048597
09:39:16.966	0.045833
09:39:17.266	0.043675
09:39:17.666	0.035557
09:39:17.966	0.022237
09:39:18.366	0.003014
09:39:18.666	-0.007757
09:39:19.066	-0.019335
09:39:19.366	-0.019361
09:39:19.766	-0.019531
09:39:20.066	-0.021037
09:39:20.367	-0.018212
09:39:20.766	-0.013759
09:39:21.066	-0.011881
09:39:21.467	-0.003837
09:39:21.766	-0.001788
09:39:22.166	0.002534
09:39:22.466	0.003934
09:39:22.867	0.014144
09:39:23.166	0.011233
09:39:23.566	0.013952
09:39:23.866	0.011108
09:39:24.166	-0.000141
09:39:24.567	-0.003487
09:39:24.866	-0.015841
09:39:25.266	-0.017023
09:39:25.566	-0.014636
09:39:25.967	-0.015173
09:39:26.266	-0.011483
09:39:26.667	-0.003540
09:39:26.966	-0.002789
09:39:27.366	-0.001478
09:39:27.666	0.002434
09:39:28.066	0.002048
09:39:28.366	0.002262
09:39:28.766	-0.002483
09:39:29.066	-0.002635
09:39:29.466	-0.009458
09:39:29.767	-0.010732
09:39:30.167	-0.013954
09:39:30.466	-0.014125
09:39:30.767	-0.000436
09:39:31.166	0.019269
09:39:31.466	0.054513
09:39:31.866	0.076562
09:39:32.166	0.092547
09:39:32.467	0.093823
09:39:32.866	0.098530
09:39:33.166	0.108120
09:39:33.567	0.105924
09:39:33.866	0.096211
09:39:34.267	0.062951
09:39:34.566	0.025564
09:39:34.966	-0.000645
09:39:35.266	-0.004612
09:39:35.666	-0.008144
09:39:35.967	-0.016256
09:39:36.366	-0.016916
09:39:36.666	-0.019729
09:39:37.067	-0.024412
09:39:37.366	-0.026619
09:39:37.766	-0.028845
09:39:38.067	-0.030385
09:39:38.466	-0.027036
09:39:38.767	-0.028249
09:39:39.166	-0.026993
09:39:39.466	-0.025738
09:39:39.766	-0.024796
09:39:40.166	-0.027711
09:39:40.466	-0.031361
09:39:40.766	-0.031649
09:39:41.167	-0.035389
09:39:41.466	-0.038180
09:39:41.766	-0.041238
09:39:42.166	-0.040527
09:39:42.466	-0.040192
09:39:42.866	-0.039765
09:39:43.166	-0.041956
09:39:43.567	-0.041318
09:39:43.867	-0.035087
09:39:44.266	-0.018151
09:39:44.567	0.004806
09:39:44.967	0.063208
09:39:45.266	0.105371
09:39:45.566	0.129539
09:39:45.967	0.157854
09:39:46.266	0.177644
09:39:46.567	0.199561
09:39:46.966	0.207091
09:39:47.266	0.208576
09:39:47.667	0.155886
09:39:47.966	0.094513
09:39:48.267	0.070196
09:39:48.666	0.042804
09:39:48.967	0.025376
09:39:49.267	0.014946
09:39:49.666	-0.007014
09:39:49.966	-0.022730
09:39:50.266	-0.029110
09:39:50.666	-0.032541
09:39:50.966	-0.040995
09:39:51.366	-0.038922
09:39:51.666	-0.038110
09:39:51.966	-0.042697
09:39:52.367	-0.043553
09:39:52.666	-0.042629
09:39:53.067	-0.045085
09:39:53.366	-0.045713
09:39:53.666	-0.042826
09:39:54.066	-0.041259
09:39:54.367	-0.035315
09:39:54.666	-0.027980
09:39:55.066	-0.027268
09:39:55.366	-0.027138
09:39:55.666	-0.024042
09:39:56.066	-0.020557
09:39:56.367	-0.019856
09:39:56.666	-0.014832
09:39:57.066	-0.018843
09:39:57.367	-0.018441
09:39:57.766	-0.009368
09:39:58.066	0.000010
09:39:58.466	0.009339
09:39:58.766	0.013668
09:39:59.066	0.020947
09:39:59.467	0.012802
09:39:59.766	0.013401
09:40:00.167	0.012800
09:40:00.466	0.007727
09:40:00.766	-0.002306
09:40:01.166	-0.016749
09:40:01.467	-0.031235
09:40:01.767	-0.038737
09:40:02.167	-0.039487
09:40:02.466	-0.043943
09:40:02.766	-0.045876
09:40:03.166	-0.046017
09:40:03.467	-0.047420
09:40:03.767	-0.047077
09:40:04.166	-0.047174
09:40:04.467	-0.046805
09:40:04.867	-0.048853
09:40:05.167	-0.045582
09:40:05.466	-0.045113
09:40:05.866	-0.045266
09:40:06.166	-0.043731
09:40:06.566	-0.044561
09:40:06.867	-0.045691
09:40:07.267	-0.042689
09:40:07.566	-0.046168
09:40:07.866	-0.044823
09:40:08.267	-0.044575
09:40:08.567	-0.040763
09:40:08.866	-0.038383
09:40:09.267	-0.037434
09:40:09.567	-0.030317
09:40:09.967	-0.029026
09:40:10.267	-0.024948
09:40:10.666	-0.023434
09:40:10.966	-0.023548
09:40:11.366	-0.026572
09:40:11.666	-0.028128
09:40:12.067	-0.034887
09:40:12.367	-0.036632
09:40:12.767	-0.037155
09:40:13.066	-0.038389
09:40:13.366	-0.037750
09:40:13.767	-0.038995
09:40:14.066	-0.036451
09:40:14.466	-0.035953
09:40:14.766	-0.035235
09:40:15.067	-0.036086
09:40:15.467	-0.036116
09:40:15.767	-0.038143
09:40:16.067	-0.035963
09:40:16.466	-0.041812
09:40:16.766	-0.041458
09:40:17.067	-0.040184
09:40:17.467	-0.040425
09:40:17.767	-0.040448
09:40:18.066	-0.041342
09:40:18.466	-0.043991
09:40:18.767	-0.042209
09:40:19.167	-0.043612
09:40:19.467	-0.044731
09:40:19.767	-0.046826
09:40:20.166	-0.044986
09:40:20.467	-0.046344
09:40:20.866	-0.045580
09:40:21.167	-0.048006
09:40:21.566	-0.042647
09:40:21.866	-0.044462
09:40:22.167	-0.042491
09:40:22.566	-0.041679
09:40:22.867	-0.040904
09:40:23.167	-0.033961
09:40:23.566	-0.030178
09:40:23.867	-0.026822
09:40:24.167	-0.020348
09:40:24.566	-0.011518
09:40:24.867	-0.005212
09:40:25.166	-0.001577
09:40:25.567	-0.002002
09:40:25.867	-0.000984
09:40:26.267	-0.007211
09:40:26.567	-0.009179
09:40:26.867	-0.020965
09:40:27.266	-0.031442
09:40:27.566	-0.033727
09:40:27.967	-0.038186
09:40:28.267	-0.043673
09:40:28.567	-0.045278
09:40:28.967	-0.047224
09:40:29.266	-0.047618
09:40:29.567	-0.046901
09:40:29.966	-0.048686
09:40:30.267	-0.050044
09:40:30.667	-0.051177
09:40:30.967	-0.052737
09:40:31.367	-0.051325
09:40:31.666	-0.050204
09:40:31.966	-0.051937
09:40:32.367	-0.052611
09:40:32.667	-0.050915
09:40:33.067	-0.053457
09:40:33.367	-0.053749
09:40:33.767	-0.053278
09:40:34.066	-0.052959
09:40:34.367	-0.054090
09:40:34.767	-0.053241
09:40:35.067	-0.054395
09:40:35.467	-0.054853
09:40:35.767	-0.055189
09:40:36.067	-0.054966
09:40:36.466	-0.052678
09:40:36.767	-0.054381
09:40:37.067	-0.054673
09:40:37.466	-0.053795
09:40:37.767	-0.053341
09:40:38.066	-0.053019
09:40:38.467	-0.054052
09:40:38.766	-0.051927
09:40:39.067	-0.055143
09:40:39.467	-0.055236
09:40:39.767	-0.054637
09:40:40.166	-0.054184
09:40:40.466	-0.055086
09:40:40.866	-0.053869
09:40:41.167	-0.055282
09:40:41.567	-0.054167
09:40:41.867	-0.054998
09:40:42.267	-0.052484
09:40:42.567	-0.055421
09:40:42.867	-0.054752
09:40:43.267	-0.052343
09:40:43.667	-0.053442
09:40:43.967	-0.053350
09:40:44.267	-0.053878
09:40:44.667	-0.051533
09:40:45.067	-0.054608
09:40:45.367	-0.055313
09:40:45.767	-0.053119
09:40:46.067	-0.052385
09:40:46.466	-0.053671
09:40:46.767	-0.055796
09:40:47.167	-0.053631
09:40:47.467	-0.055689
09:40:47.867	-0.055559
09:40:48.167	-0.053925
09:40:48.567	-0.054072
09:40:48.866	-0.053974
09:40:49.267	-0.055642
09:40:49.567	-0.055172
09:40:49.967	-0.055323
09:40:50.267	-0.055732
09:40:50.667	-0.054116
09:40:50.967	-0.053384
09:40:51.266	-0.055594
09:40:51.667	-0.054915
09:40:51.967	-0.053853
09:40:52.268	-0.056358
09:40:52.667	-0.053310
09:40:52.967	-0.055319
09:40:53.267	-0.055144
09:40:53.667	-0.056453
09:40:53.967	-0.055853
09:40:54.367	-0.055883
09:40:54.667	-0.055337
09:40:54.967	-0.056391
09:40:55.367	-0.055012
09:40:55.667	-0.052242
09:40:55.967	-0.053063
09:40:56.367	-0.055151
09:40:56.667	-0.054838
09:40:56.967	-0.053597
09:40:57.367	-0.054487
09:40:57.667	-0.054419
09:40:58.067	-0.053671
09:40:58.367	-0.054194
09:40:58.767	-0.053192
09:40:59.067	-0.054465
09:40:59.367	-0.055922
09:40:59.767	-0.054062
09:41:00.066	-0.054973
09:41:00.367	-0.054633
09:41:00.767	-0.055494
09:41:01.067	-0.055955
09:41:01.467	-0.054752
09:41:01.767	-0.054431
09:41:02.067	-0.055868
09:41:02.467	-0.053441
09:41:02.767	-0.052986
09:41:03.067	-0.053222
09:41:03.467	-0.057462
09:41:03.767	-0.052351
09:41:04.067	-0.052591
09:41:04.467	-0.054275
09:41:04.767	-0.055093
09:41:05.067	-0.054831
09:41:05.467	-0.053606
09:41:05.767	-0.054740
09:41:06.067	-0.053828
09:41:06.466	-0.055048
09:41:06.767	-0.054221
09:41:07.167	-0.054155
09:41:07.467	-0.054431
09:41:07.867	-0.054374
09:41:08.167	-0.052909
09:41:08.567	-0.053307
09:41:08.867	-0.055554
09:41:09.167	-0.055563
09:41:09.567	-0.054401
09:41:09.867	-0.053018
09:41:10.267	-0.054158
09:41:10.567	-0.055636
09:41:10.968	-0.055963
09:41:11.268	-0.054668
09:41:11.667	-0.052829
09:41:11.967	-0.054630
09:41:12.266	-0.054955
09:41:12.667	-0.054502
09:41:12.967	-0.055156
09:41:13.267	-0.053490
09:41:13.667	-0.053861
09:41:13.968	-0.054513
09:41:14.367	-0.054891
09:41:14.667	-0.054260
09:41:15.067	-0.054442
09:41:15.367	-0.054415
09:41:15.767	-0.056509
09:41:16.067	-0.056116
09:41:16.368	-0.053539
09:41:16.767	-0.054235
09:41:17.067	-0.054754
09:41:17.467	-0.057291
09:41:17.767	-0.055818
09:41:18.067	-0.056390
09:41:18.468	-0.053121
09:41:18.767	-0.055202
09:41:19.067	-0.054544
09:41:19.467	-0.053981
09:41:19.767	-0.054868
09:41:20.167	-0.056366
09:41:20.467	-0.056629
09:41:20.866	-0.052239
09:41:21.167	-0.056063
09:41:21.467	-0.055039
09:41:21.867	-0.053998
09:41:22.167	-0.056427
09:41:22.567	-0.054692
09:41:22.867	-0.055531
09:41:23.167	-0.054928
09:41:23.567	-0.053838
09:41:23.867	-0.055171
09:41:24.267	-0.054450
09:41:24.567	-0.051723
09:41:24.967	-0.053797
09:41:25.267	-0.056790
09:41:25.666	-0.055183
09:41:25.967	-0.055204
09:41:26.267	-0.054451
09:41:26.667	-0.054178
09:41:26.967	-0.054422
09:41:27.367	-0.055245
09:41:27.667	-0.055934
09:41:28.067	-0.053493
09:41:28.367	-0.055251
09:41:28.766	-0.056058
09:41:29.067	-0.054162
09:41:29.467	-0.054542
09:41:29.767	-0.054769
09:41:30.068	-0.054818
09:41:30.467	-0.054995
09:41:30.768	-0.055657
09:41:31.167	-0.057475
09:41:31.467	-0.056122
09:41:31.867	-0.054468
09:41:32.167	-0.053763
09:41:32.467	-0.053430
09:41:32.867	-0.053459
09:41:33.167	-0.052830
09:41:33.467	-0.052749
09:41:33.867	-0.053456
09:41:34.167	-0.053661
09:41:34.467	-0.053212
09:41:34.867	-0.053637
09:41:35.167	-0.053163
09:41:35.567	-0.054445
09:41:35.867	-0.053789
09:41:36.167	-0.052112
09:41:36.567	-0.050740
09:41:36.867	-0.052139
09:41:37.167	-0.054014
09:41:37.567	-0.053255
09:41:37.867	-0.054480
09:41:38.167	-0.054334
09:41:38.567	-0.054450
09:41:38.867	-0.055338
09:41:39.167	-0.056046
09:41:39.567	-0.054743
09:41:39.867	-0.056538
09:41:40.267	-0.056949
09:41:40.567	-0.055887
09:41:40.967	-0.055862
09:41:41.267	-0.055408
09:41:41.567	-0.056122
09:41:41.967	-0.054737
09:41:42.267	-0.055791
09:41:42.567	-0.055266
09:41:42.967	-0.056900
09:41:43.267	-0.055651
09:41:43.667	-0.055318
09:41:43.967	-0.055035
09:41:44.267	-0.054978
09:41:44.667	-0.055985
09:41:44.967	-0.055626
09:41:45.366	-0.054805
09:41:45.667	-0.053250
09:41:45.967	-0.054723
09:41:46.367	-0.057579
09:41:46.667	-0.050697
09:41:47.067	-0.051915
09:41:47.367	-0.052440
09:41:47.667	-0.051606
09:41:48.067	-0.052283
09:41:48.367	-0.053054
09:41:48.767	-0.052765
09:41:49.067	-0.053488
09:41:49.367	-0.052729
09:41:49.767	-0.054970
09:41:50.067	-0.056118
09:41:50.467	-0.055302
09:41:50.767	-0.055922
09:41:51.167	-0.053594
09:41:51.467	-0.055295
09:41:51.767	-0.055104
09:41:52.167	-0.053201
09:41:52.468	-0.053815
09:41:52.867	-0.056221
09:41:53.167	-0.054491
09:41:53.467	-0.056848
09:41:53.867	-0.056368
09:41:54.167	-0.054007
09:41:54.567	-0.054377
09:41:54.867	-0.052879
09:41:55.168	-0.051376
09:41:55.567	-0.050711
09:41:55.867	-0.049198
09:41:56.267	-0.045911
09:41:56.567	-0.044082
09:41:56.967	-0.040889
09:41:57.267	-0.039170
09:41:57.667	-0.034823
09:41:57.967	-0.034056
09:41:58.267	-0.034728
09:41:58.667	-0.032390
09:41:58.967	-0.034001
09:41:59.367	-0.034006
09:41:59.667	-0.032093
09:42:00.067	-0.025013
09:42:00.367	-0.020598
09:42:00.667	-0.008674
09:42:01.068	-0.006439
09:42:01.367	-0.003759
09:42:01.667	-0.000078
09:42:02.067	0.008090
09:42:02.367	0.006598
09:42:02.667	0.002792
09:42:03.068	-0.001045
09:42:03.367	-0.009992
09:42:03.667	-0.014784
09:42:04.067	-0.022736
09:42:04.367	-0.028845
09:42:04.767	-0.030987
09:42:05.067	-0.031723
09:42:05.367	-0.035385
09:42:05.767	-0.035752
09:42:06.067	-0.036512
09:42:06.367	-0.036852
09:42:06.767	-0.037399
09:42:07.067	-0.036496
09:42:07.367	-0.034230
09:42:07.768	-0.031724
09:42:08.067	-0.033029
09:42:08.467	-0.033528
09:42:08.767	-0.034762
09:42:09.167	-0.032322
09:42:09.467	-0.030928
09:42:09.767	-0.029926
09:42:10.167	-0.023649
09:42:10.467	-0.016239
09:42:10.767	-0.011355
09:42:11.167	-0.000144
09:42:11.467	0.012875
09:42:11.867	0.030699
09:42:12.167	0.033711
09:42:12.467	0.038532
09:42:12.867	0.040006
09:42:13.167	0.039085
09:42:13.567	0.034939
09:42:13.867	0.021629
09:42:14.167	0.015564
09:42:14.567	0.001899
09:42:14.867	-0.009145
09:42:15.267	-0.027441
09:42:15.567	-0.031982
09:42:15.967	-0.038316
09:42:16.267	-0.045378
09:42:16.567	-0.046739
09:42:16.968	-0.048328
09:42:17.267	-0.049030
09:42:17.667	-0.049942
09:42:17.967	-0.053750
09:42:18.367	-0.053913
09:42:18.667	-0.054343
09:42:19.067	-0.055661
09:42:19.367	-0.056216
09:42:19.667	-0.056342
09:42:20.067	-0.055624
09:42:20.367	-0.056310
09:42:20.768	-0.057094
09:42:21.067	-0.056527
09:42:21.367	-0.056513
09:42:21.767	-0.056776
09:42:22.067	-0.056401
09:42:22.467	-0.056793
09:42:22.767	-0.057092
09:42:23.167	-0.057856
09:42:23.467	-0.055917
09:42:23.767	-0.057858
09:42:24.167	-0.056549
09:42:24.468	-0.059018
09:42:24.767	-0.058682
09:42:25.167	-0.057873
09:42:25.467	-0.057600
09:42:25.867	-0.058434
09:42:26.167	-0.058274
09:42:26.467	-0.059922
09:42:26.867	-0.058762
09:42:27.167	-0.058979
09:42:27.568	-0.058738
09:42:27.867	-0.059312
09:42:28.267	-0.060796
09:42:28.567	-0.060335
09:42:28.867	-0.059383
09:42:29.267	-0.059158
09:42:29.568	-0.059087
09:42:29.867	-0.058834
09:42:30.267	-0.059238
09:42:30.567	-0.059648
09:42:30.867	-0.060992
09:42:31.268	-0.060155
09:42:31.567	-0.060733
09:42:31.867	-0.060279
09:42:32.267	-0.059781
09:42:32.567	-0.059608
09:42:32.967	-0.059513
09:42:33.267	-0.059367
09:42:33.567	-0.059006
09:42:33.967	-0.060864
09:42:34.268	-0.060576
09:42:34.667	-0.059320
09:42:34.967	-0.060382