Chart Recorder Data File Tue, Sep 24, 2024 12:18 PM
Time (s)	CH1 (V)  
12:05:53.914	1.115011
12:05:54.713	1.134274
12:05:55.014	1.112638
12:05:55.414	1.099343
12:05:55.714	1.036888
12:05:56.014	1.041056
12:05:56.413	1.090770
12:05:56.714	1.068699
12:05:57.013	1.103580
12:05:57.414	1.120660
12:05:57.714	1.099907
12:05:58.114	1.022638
12:05:58.414	1.021385
12:05:58.814	1.103832
12:05:59.114	1.129039
12:05:59.514	1.103203
12:05:59.814	1.088424
12:06:00.214	1.082449
12:06:00.515	1.065556
12:06:00.814	1.087057
12:06:01.214	1.102093
12:06:01.514	1.096598
12:06:01.914	1.071308
12:06:02.214	1.061603
12:06:02.514	1.059999
12:06:02.914	1.056278
12:06:03.214	1.110048
12:06:03.614	1.089687
12:06:03.914	1.113500
12:06:04.314	1.090804
12:06:04.614	1.095472
12:06:05.014	1.084526
12:06:05.314	1.094386
12:06:05.714	1.091501
12:06:06.014	1.064154
12:06:06.414	1.088492
12:06:06.714	1.069986
12:06:07.014	1.066839
12:06:07.414	1.047173
12:06:07.714	1.084961
12:06:08.014	1.144047
12:06:08.414	1.155768
12:06:08.714	1.113359
12:06:09.114	1.055755
12:06:09.414	1.055300
12:06:09.814	1.082587
12:06:10.114	1.077427
12:06:10.514	1.104780
12:06:10.814	1.056960
12:06:11.114	1.056441
12:06:11.514	1.050930
12:06:11.814	1.038396
12:06:12.214	1.039388
12:06:12.514	1.062134
12:06:12.914	1.042682
12:06:13.214	1.054259
12:06:13.514	1.056394
12:06:13.914	1.077241
12:06:14.214	1.085107
12:06:14.614	1.110340
12:06:14.914	1.060156
12:06:15.314	1.059152
12:06:15.614	1.068112
12:06:16.014	1.056878
12:06:16.314	1.082382
12:06:16.614	1.035621
12:06:17.014	1.011679
12:06:17.313	1.002311
12:06:17.714	1.034870
12:06:18.014	1.041493
12:06:18.314	1.056637
12:06:18.714	1.057396
12:06:19.014	1.023788
12:06:19.414	1.048841
12:06:19.714	1.039510
12:06:20.015	1.013742
12:06:20.414	0.998573
12:06:20.714	1.008089
12:06:21.114	1.030415
12:06:21.414	1.023813
12:06:21.813	1.008065
12:06:22.114	1.025624
12:06:22.514	1.043007
12:06:22.814	1.073682
12:06:23.214	1.095583
12:06:23.514	1.104419
12:06:23.914	1.121179
12:06:24.214	1.089136
12:06:24.614	1.100712
12:06:24.914	1.075196
12:06:25.314	1.074603
12:06:25.614	1.072741
12:06:26.014	1.083012
12:06:26.314	1.083765
12:06:26.714	1.122885
12:06:27.014	1.137071
12:06:27.414	1.112102
12:06:27.714	1.096525
12:06:28.014	1.059152
12:06:28.414	1.123643
12:06:28.714	1.074441
12:06:29.014	1.117220
12:06:29.414	1.161693
12:06:29.715	1.182371
12:06:30.114	1.138956
12:06:30.414	1.151314
12:06:30.814	1.196416
12:06:31.114	1.226783
12:06:31.514	1.241524
12:06:31.814	1.233676
12:06:32.214	1.359215
12:06:32.514	1.409405
12:06:32.914	1.518280
12:06:33.214	1.612225
12:06:33.614	1.656968
12:06:33.915	1.710502
12:06:34.214	1.792504
12:06:34.614	1.887009
12:06:34.914	1.925972
12:06:35.214	2.003862
12:06:35.614	2.102599
12:06:35.914	2.107608
12:06:36.314	2.301373
12:06:37.614	2.373947
12:06:37.914	2.423158
12:06:38.315	2.452384
12:06:38.614	2.503699
12:06:39.014	2.529012
12:06:39.315	2.581684
12:06:39.714	2.644796
12:06:40.014	2.631825
12:06:40.414	2.608963
12:06:40.714	2.616721
12:06:41.014	2.606825
12:06:41.414	2.655745
12:06:41.714	2.600521
12:06:42.114	2.642221
12:06:42.414	2.684571
12:06:42.714	2.636470
12:06:43.114	2.717261
12:06:43.414	2.667643
12:06:43.814	2.661836
12:06:44.114	2.655763
12:06:44.414	2.692519
12:06:44.815	2.708005
12:06:45.214	2.717818
12:06:45.515	2.668323
12:06:45.914	2.635289
12:06:46.214	2.597980
12:06:46.614	2.603357
12:06:46.914	2.500455
12:06:47.314	2.499547
12:06:47.614	2.471752
12:06:47.914	2.378711
12:06:48.314	2.247472
12:06:48.614	2.193784
12:06:49.014	2.033248
12:06:49.314	1.768391
12:06:50.614	1.633874
12:06:50.914	1.554254
12:06:51.214	1.499721
12:06:51.614	1.349230
12:06:51.914	1.302324
12:06:52.214	1.248494
12:06:52.614	1.196373
12:06:52.914	1.164544
12:06:53.314	1.128424
12:06:53.614	1.142072
12:06:54.014	1.124013
12:06:54.314	1.077528
12:06:54.714	1.027686
12:06:55.014	0.997508
12:06:55.315	0.946070
12:06:55.714	0.965753
12:06:56.014	0.994509
12:06:56.414	0.906900
12:06:56.814	0.892071
12:06:57.114	0.904832
12:06:57.414	0.910685
12:06:57.814	0.920666
12:06:58.114	0.913438
12:06:58.414	0.924441
12:06:58.814	0.878904
12:06:59.114	0.906820
12:06:59.414	0.875267
12:06:59.814	0.882574
12:07:00.114	0.918061
12:07:00.514	0.915884
12:07:00.814	0.918430
12:07:01.214	0.907568
12:07:01.514	0.924930
12:07:01.915	0.903239
12:07:02.214	0.974230
12:07:02.514	1.022720
12:07:02.914	1.102016
12:07:03.215	1.169428
12:07:03.614	1.232339
12:07:03.914	1.258154
12:07:04.314	1.349604
12:07:04.614	1.469408
12:07:05.014	1.599518
12:07:05.314	1.644396
12:07:05.714	1.695127
12:07:06.014	1.793099
12:07:06.314	1.857998
12:07:06.714	1.953663
12:07:07.014	1.946344
12:07:07.414	2.043237
12:07:07.714	2.052398
12:07:08.114	2.096568
12:07:08.414	2.172426
12:07:08.714	2.301354
12:07:10.014	2.292826
12:07:10.314	2.304953
12:07:10.714	2.283794
12:07:11.014	2.353670
12:07:11.414	2.381151
12:07:11.714	2.391039
12:07:12.114	2.362953
12:07:12.414	2.431734
12:07:12.814	2.459648
12:07:13.115	2.512122
12:07:13.414	2.511438
12:07:13.814	2.467851
12:07:14.114	2.551912
12:07:14.414	2.530866
12:07:14.815	2.519659
12:07:15.114	2.523964
12:07:15.514	2.565817
12:07:15.814	2.565125
12:07:16.214	2.540114
12:07:16.514	2.519405
12:07:16.914	2.478280
12:07:17.214	2.448983
12:07:17.614	2.391058
12:07:17.914	2.249374
12:07:18.314	2.172204
12:07:18.614	2.127167
12:07:19.014	2.002303
12:07:19.314	1.658489
12:07:20.614	1.544223
12:07:20.914	1.509369
12:07:21.314	1.372149
12:07:21.614	1.294329
12:07:21.914	1.220598
12:07:22.314	1.197440
12:07:22.614	1.157886
12:07:23.014	1.120767
12:07:23.314	1.082950
12:07:23.714	1.034587
12:07:24.014	1.024069
12:07:24.314	0.982387
12:07:24.714	0.983946
12:07:25.014	0.967285
12:07:25.414	0.966466
12:07:25.714	0.945316
12:07:26.114	0.930443
12:07:26.414	0.925485
12:07:26.815	0.896879
12:07:27.114	0.938734
12:07:27.515	0.895934
12:07:27.815	0.907174
12:07:28.214	0.861197
12:07:28.514	0.830956
12:07:28.914	0.841365
12:07:29.214	0.799799
12:07:29.514	0.845400
12:07:29.914	0.831971
12:07:30.215	0.819289
12:07:30.615	0.824319
12:07:30.914	0.820693
12:07:31.314	0.801425
12:07:31.614	0.816551
12:07:32.014	0.798221
12:07:32.314	0.788854
12:07:32.714	0.794422
12:07:33.014	0.759479
12:07:33.414	0.746118
12:07:33.714	0.760580
12:07:34.114	0.766865
12:07:34.414	0.760450
12:07:34.814	0.742158
12:07:35.114	0.746457
12:07:35.415	0.748064
12:07:35.815	0.727681
12:07:36.114	0.740018
12:07:36.514	0.736358
12:07:36.814	0.719633
12:07:37.214	0.729329
12:07:37.514	0.757427
12:07:37.914	0.757725
12:07:38.214	0.724240
12:07:38.514	0.749378
12:07:38.914	0.731442
12:07:39.215	0.756661
12:07:39.514	0.725605
12:07:39.915	0.708800
12:07:40.214	0.694594
12:07:40.615	0.702432
12:07:40.914	0.708315
12:07:41.314	0.694842
12:07:41.614	0.715693
12:07:42.014	0.751403
12:07:42.314	0.728450
12:07:42.714	0.718383
12:07:43.014	0.706056
12:07:43.415	0.697558
12:07:43.714	0.714189
12:07:44.114	0.726471
12:07:44.414	0.718564
12:07:44.814	0.672435
12:07:45.115	0.699121
12:07:45.414	0.714157
12:07:45.814	0.713694
12:07:46.114	0.664106
12:07:46.414	0.676825
12:07:46.814	0.685240
12:07:47.115	0.691394
12:07:47.414	0.688197
12:07:47.815	0.680202
12:07:48.115	0.681264
12:07:48.514	0.659492
12:07:48.814	0.654380
12:07:49.214	0.683959
12:07:49.514	0.661593
12:07:49.815	0.659204
12:07:50.214	0.660633
12:07:50.514	0.642728
12:07:50.815	0.662547
12:07:51.214	0.669791
12:07:51.515	0.681352
12:07:51.915	0.666525
12:07:52.215	0.644655
12:07:52.514	0.635669
12:07:52.914	0.628789
12:07:53.214	0.602059
12:07:53.515	0.594773
12:07:53.915	0.603612
12:07:54.215	0.620979
12:07:54.515	0.608162
12:07:54.915	0.625875
12:07:55.215	0.615343
12:07:55.615	0.612953
12:07:55.915	0.596390
12:07:56.315	0.581488
12:07:56.615	0.595172
12:07:57.015	0.570079
12:07:57.314	0.570500
12:07:57.715	0.564539
12:07:58.014	0.553380
12:07:58.415	0.539793
12:07:58.715	0.526909
12:07:59.115	0.557450
12:07:59.415	0.527501
12:07:59.715	0.507206
12:08:00.114	0.522602
12:08:00.414	0.490628
12:08:00.815	0.486694
12:08:01.114	0.490246
12:08:01.415	0.460882
12:08:01.815	0.474505
12:08:02.115	0.480856
12:08:02.515	0.487035
12:08:02.814	0.493657
12:08:03.215	0.443634
12:08:03.515	0.441246
12:08:03.815	0.464353
12:08:04.215	0.435762
12:08:04.515	0.416968
12:08:04.915	0.409711
12:08:05.214	0.404454
12:08:05.515	0.403026
12:08:05.915	0.426250
12:08:06.214	0.410611
12:08:06.515	0.419782
12:08:06.914	0.421687
12:08:07.215	0.394956
12:08:07.615	0.384651
12:08:07.915	0.367532
12:08:08.315	0.393342
12:08:08.615	0.393905
12:08:09.015	0.386470
12:08:09.314	0.387614
12:08:09.715	0.383380
12:08:10.015	0.384087
12:08:10.415	0.369419
12:08:10.715	0.369974
12:08:11.115	0.359154
12:08:11.415	0.364864
12:08:11.815	0.353842
12:08:12.115	0.349678
12:08:12.515	0.332577
12:08:12.815	0.342291
12:08:13.215	0.348748
12:08:13.515	0.355813
12:08:13.915	0.359308
12:08:14.215	0.364257
12:08:14.515	0.361967
12:08:14.914	0.359371
12:08:15.215	0.374771
12:08:15.614	0.346320
12:08:15.915	0.339032
12:08:16.315	0.342260
12:08:16.615	0.349154
12:08:17.015	0.361148
12:08:17.315	0.335633
12:08:17.615	0.354350
12:08:18.015	0.359915
12:08:18.315	0.352751
12:08:18.714	0.360237
12:08:19.015	0.368429
12:08:19.415	0.342088
12:08:19.715	0.345552
12:08:20.115	0.373670
12:08:20.415	0.367376
12:08:20.815	0.382200
12:08:21.114	0.371289
12:08:21.515	0.370787
12:08:21.815	0.361488
12:08:22.215	0.369138
12:08:22.515	0.367888
12:08:22.815	0.374659
12:08:23.215	0.390127
12:08:23.515	0.383098
12:08:23.915	0.401086
12:08:24.214	0.400369
12:08:24.615	0.391173
12:08:24.915	0.418095
12:08:25.315	0.406385
12:08:25.615	0.425221
12:08:26.015	0.395477
12:08:26.314	0.445533
12:08:26.715	0.456840
12:08:27.015	0.463947
12:08:27.415	0.523968
12:08:27.715	0.594563
12:08:28.115	0.649059
12:08:28.415	0.667890
12:08:28.815	0.752601
12:08:29.114	0.827279
12:08:29.514	0.985206
12:08:29.815	1.050553
12:08:30.215	1.126691
12:08:30.515	1.236171
12:08:30.915	1.335261
12:08:31.215	1.377014
12:08:31.615	1.455528
12:08:31.915	1.475167
12:08:32.315	1.551268
12:08:32.615	1.673160
12:08:33.015	1.718107
12:08:33.315	1.780893
12:08:33.715	1.834365
12:08:34.015	1.846907
12:08:34.415	1.865294
12:08:34.815	1.918687
12:08:35.115	1.938178
12:08:35.515	1.984482
12:08:35.815	2.015469
12:08:36.215	2.009126
12:08:36.515	2.002489
12:08:36.915	1.937891
12:08:37.215	2.016021
12:08:37.615	1.995417
12:08:37.915	1.973380
12:08:38.315	2.037549
12:08:38.615	2.070661
12:08:38.915	2.018177
12:08:39.315	2.026981
12:08:39.614	2.050184
12:08:39.915	2.053690
12:08:40.315	2.070906
12:08:40.615	2.079073
12:08:40.915	2.095718
12:08:41.315	2.055381
12:08:41.615	2.099144
12:08:42.015	2.087695
12:08:42.315	2.019730
12:08:42.715	1.980840
12:08:43.015	1.950473
12:08:43.315	1.876809
12:08:43.715	1.764387
12:08:44.015	1.703843
12:08:44.415	1.611449
12:08:44.714	1.477057
12:08:45.015	1.447268
12:08:45.415	1.306188
12:08:45.714	1.173648
12:08:46.015	1.111815
12:08:46.415	1.058745
12:08:46.715	0.977222
12:08:47.116	0.920149
12:08:47.415	0.884749
12:08:47.815	0.866378
12:08:48.115	0.793575
12:08:48.515	0.733402
12:08:48.815	0.709795
12:08:49.215	0.674908
12:08:49.514	0.689324
12:08:49.815	0.696108
12:08:50.215	0.690301
12:08:50.515	0.683417
12:08:50.915	0.644561
12:08:51.215	0.637633
12:08:51.516	0.630372
12:08:51.915	0.638684
12:08:52.215	0.639521
12:08:52.615	0.665449
12:08:52.915	0.670492
12:08:53.215	0.672263
12:08:53.615	0.690246
12:08:53.915	0.687151
12:08:54.315	0.692000
12:08:54.615	0.683445
12:08:54.915	0.714854
12:08:55.315	0.751889
12:08:55.615	0.754196
12:08:56.015	0.750109
12:08:56.315	0.767285
12:08:56.715	0.789928
12:08:57.015	0.778243
12:08:57.315	0.824394
12:08:57.715	0.795693
12:08:58.015	0.827396
12:08:58.315	0.887091
12:08:58.715	0.882511
12:08:59.014	0.891984
12:08:59.415	0.908836
12:08:59.714	0.901706
12:09:00.115	0.927440
12:09:00.415	0.938110
12:09:00.815	0.945524
12:09:01.115	0.907733
12:09:01.515	0.914187
12:09:01.815	0.958786
12:09:02.115	0.943983
12:09:02.515	0.978215
12:09:02.815	0.963462
12:09:03.215	0.932504
12:09:03.515	0.904630
12:09:03.915	0.925614
12:09:04.215	0.925238
12:09:04.615	0.898521
12:09:04.915	0.932182
12:09:05.315	0.958204
12:09:05.615	0.956190
12:09:05.915	0.931720
12:09:06.315	0.927913
12:09:06.615	0.942576
12:09:07.015	0.910420
12:09:07.315	0.896984
12:09:07.715	0.910564
12:09:08.015	0.894039
12:09:08.415	0.868077
12:09:08.715	0.870152
12:09:09.015	0.862227
12:09:09.415	0.820270
12:09:09.714	0.814185
12:09:10.115	0.779202
12:09:10.415	0.770743
12:09:10.815	0.739950
12:09:11.115	0.717885
12:09:11.515	0.713756
12:09:11.815	0.700737
12:09:12.215	0.678626
12:09:12.515	0.641998
12:09:12.915	0.624044
12:09:13.216	0.631922
12:09:13.615	0.624658
12:09:13.915	0.585460
12:09:14.315	0.577190
12:09:14.615	0.558294
12:09:15.015	0.549192
12:09:15.315	0.519447
12:09:15.715	0.515074
12:09:16.115	0.487447
12:09:16.415	0.479819
12:09:16.815	0.456478
12:09:17.115	0.463295
12:09:17.515	0.453346
12:09:17.815	0.445593
12:09:18.215	0.416485
12:09:18.515	0.427210
12:09:18.915	0.410222
12:09:19.215	0.417499
12:09:19.615	0.399507
12:09:19.915	0.393102
12:09:20.215	0.380581
12:09:20.615	0.394970
12:09:20.915	0.398790
12:09:21.315	0.394808
12:09:21.615	0.368399
12:09:22.015	0.393457
12:09:22.315	0.373851
12:09:22.715	0.362399
12:09:23.015	0.351955
12:09:23.415	0.345650
12:09:23.715	0.335734
12:09:24.115	0.371484
12:09:24.415	0.364043
12:09:24.815	0.360994
12:09:25.115	0.365000
12:09:25.415	0.361164
12:09:25.815	0.354859
12:09:26.115	0.341026
12:09:26.515	0.337551
12:09:26.815	0.353316
12:09:27.215	0.385296
12:09:27.515	0.373678
12:09:27.915	0.358294
12:09:28.215	0.345675
12:09:28.615	0.341275
12:09:28.915	0.374814
12:09:29.315	0.338397
12:09:29.615	0.342696
12:09:30.015	0.340627
12:09:30.315	0.340196
12:09:30.715	0.332260
12:09:31.015	0.340768
12:09:31.415	0.323136
12:09:31.815	0.328648
12:09:32.115	0.316939
12:09:32.515	0.325215
12:09:32.815	0.322483
12:09:33.215	0.331353
12:09:33.615	0.347416
12:09:33.915	0.348892
12:09:34.315	0.351058
12:09:34.615	0.328726
12:09:35.015	0.319708
12:09:35.315	0.337090
12:09:35.715	0.314026
12:09:36.015	0.328502
12:09:36.415	0.364151
12:09:36.715	0.353270
12:09:37.115	0.346067
12:09:37.415	0.332575
12:09:37.815	0.322204
12:09:38.115	0.304372
12:09:38.515	0.314484
12:09:38.815	0.329201
12:09:39.215	0.335404
12:09:39.515	0.333210
12:09:39.915	0.302003
12:09:40.215	0.337958
12:09:40.615	0.335429
12:09:40.915	0.322475
12:09:41.315	0.336674
12:09:41.615	0.310080
12:09:42.015	0.333848
12:09:42.315	0.333917
12:09:42.715	0.331364
12:09:43.015	0.335500
12:09:43.315	0.333697
12:09:43.715	0.358984
12:09:44.015	0.353459
12:09:44.415	0.323855
12:09:44.715	0.333854
12:09:45.115	0.351044
12:09:45.415	0.359284
12:09:45.816	0.344114
12:09:46.115	0.365735
12:09:46.515	0.378053
12:09:46.815	0.364510
12:09:47.215	0.374223
12:09:47.515	0.374011
12:09:47.915	0.386995
12:09:48.215	0.392891
12:09:48.615	0.388388
12:09:48.915	0.387912
12:09:49.315	0.410972
12:09:49.615	0.410530
12:09:50.015	0.365532
12:09:50.315	0.372468
12:09:50.716	0.395221
12:09:51.015	0.403910
12:09:51.315	0.425261
12:09:51.715	0.473314
12:09:52.015	0.463034
12:09:52.415	0.458483
12:09:52.715	0.485029
12:09:53.115	0.491452
12:09:53.416	0.492657
12:09:53.815	0.491222
12:09:54.115	0.491930
12:09:54.515	0.488060
12:09:54.815	0.484767
12:09:55.215	0.485024
12:09:55.515	0.491207
12:09:55.915	0.479262
12:09:56.215	0.503089
12:09:56.615	0.485326
12:09:56.915	0.479914
12:09:57.315	0.473381
12:09:57.615	0.470213
12:09:58.015	0.495965
12:09:58.315	0.493144
12:09:58.715	0.494218
12:09:59.015	0.494416
12:09:59.415	0.488588
12:09:59.715	0.478442
12:10:00.115	0.506858
12:10:00.416	0.481053
12:10:00.815	0.472355
12:10:01.115	0.475008
12:10:01.516	0.459545
12:10:01.815	0.440591
12:10:02.215	0.437399
12:10:02.515	0.441727
12:10:02.915	0.437130
12:10:03.215	0.431696
12:10:03.515	0.408385
12:10:03.915	0.401830
12:10:04.215	0.396097
12:10:04.615	0.376441
12:10:04.915	0.391521
12:10:05.316	0.416279
12:10:05.616	0.395946
12:10:06.015	0.354731
12:10:06.315	0.361890
12:10:06.715	0.338671
12:10:07.015	0.363206
12:10:07.415	0.360458
12:10:07.815	0.342214
12:10:08.115	0.322014
12:10:08.516	0.310398
12:10:08.815	0.316465
12:10:09.215	0.294404
12:10:09.516	0.296015
12:10:09.915	0.303273
12:10:10.215	0.293866
12:10:10.515	0.300506
12:10:10.915	0.282911
12:10:11.215	0.288793
12:10:11.615	0.287469
12:10:11.915	0.283107
12:10:12.215	0.281652
12:10:12.615	0.282359
12:10:13.015	0.276608
12:10:13.315	0.252357
12:10:13.715	0.263818
12:10:14.015	0.245691
12:10:14.415	0.296894
12:10:14.715	0.272042
12:10:15.115	0.220398
12:10:15.415	0.232151
12:10:15.715	0.233563
12:10:16.115	0.270065
12:10:16.415	0.261705
12:10:16.815	0.273255
12:10:17.115	0.251260
12:10:17.516	0.227990
12:10:17.816	0.256161
12:10:18.216	0.240166
12:10:18.515	0.258725
12:10:18.915	0.250379
12:10:19.216	0.251565
12:10:19.615	0.262830
12:10:19.915	0.265390
12:10:20.315	0.252952
12:10:20.615	0.257382
12:10:21.015	0.270814
12:10:21.316	0.250445
12:10:21.615	0.252855
12:10:22.015	0.256682
12:10:22.315	0.251940
12:10:22.715	0.237157
12:10:23.015	0.247483
12:10:23.415	0.274023
12:10:23.715	0.268832
12:10:24.115	0.263596
12:10:24.415	0.265535
12:10:24.815	0.231534
12:10:25.115	0.243738
12:10:25.515	0.265841
12:10:25.815	0.221971
12:10:26.215	0.212458
12:10:26.515	0.246740
12:10:26.815	0.262238
12:10:27.215	0.241167
12:10:27.515	0.239440
12:10:27.915	0.248842
12:10:28.215	0.241512
12:10:28.615	0.230576
12:10:28.916	0.238839
12:10:29.316	0.236820
12:10:29.615	0.246739
12:10:30.015	0.233374
12:10:30.315	0.227369
12:10:30.615	0.237446
12:10:31.015	0.245686
12:10:31.315	0.250935
12:10:31.715	0.249057
12:10:32.015	0.239232
12:10:32.415	0.223822
12:10:32.715	0.247532
12:10:33.115	0.227924
12:10:33.415	0.229956
12:10:33.815	0.235541
12:10:34.115	0.227145
12:10:34.516	0.234445
12:10:34.816	0.235483
12:10:35.215	0.245044
12:10:35.516	0.238190
12:10:35.815	0.237638
12:10:36.215	0.261166
12:10:36.515	0.228455
12:10:36.916	0.234717
12:10:37.216	0.246947
12:10:37.615	0.238412
12:10:37.915	0.224877
12:10:38.315	0.230871
12:10:38.616	0.253221
12:10:39.015	0.244641
12:10:39.316	0.245731
12:10:39.715	0.244069
12:10:40.015	0.234038
12:10:40.415	0.248834
12:10:40.715	0.248963
12:10:41.115	0.246338
12:10:41.415	0.238761
12:10:41.815	0.214614
12:10:42.215	0.221652
12:10:42.515	0.227518
12:10:42.915	0.235721
12:10:43.215	0.245124
12:10:43.615	0.256593
12:10:44.016	0.273929
12:10:44.315	0.260560
12:10:44.715	0.249504
12:10:45.015	0.255876
12:10:45.416	0.257214
12:10:45.715	0.235254
12:10:46.116	0.239574
12:10:46.415	0.261256
12:10:46.716	0.240021
12:10:47.115	0.241259
12:10:47.415	0.243733
12:10:47.815	0.253446
12:10:48.116	0.264661
12:10:48.516	0.249464
12:10:48.816	0.243922
12:10:49.215	0.236526
12:10:49.515	0.255081
12:10:49.916	0.250418
12:10:50.216	0.248718
12:10:50.616	0.244851
12:10:50.915	0.250717
12:10:51.316	0.247123
12:10:51.616	0.252044
12:10:51.915	0.250340
12:10:52.315	0.257557
12:10:52.616	0.255036
12:10:53.016	0.228931
12:10:53.315	0.235319
12:10:53.616	0.245745
12:10:54.016	0.230950
12:10:54.315	0.233259
12:10:54.716	0.262680
12:10:55.015	0.284977
12:10:55.416	0.229336
12:10:55.716	0.238437
12:10:56.116	0.247077
12:10:56.415	0.248725
12:10:56.815	0.243140
12:10:57.116	0.248665
12:10:57.516	0.228915
12:10:57.816	0.228402
12:10:58.216	0.226163
12:10:58.515	0.210039
12:10:58.916	0.233589
12:10:59.216	0.236669
12:10:59.615	0.249445
12:10:59.915	0.259914
12:11:00.316	0.243290
12:11:00.616	0.246884
12:11:01.016	0.209832
12:11:01.316	0.221366
12:11:01.715	0.240735
12:11:02.016	0.239962
12:11:02.415	0.210607
12:11:02.716	0.226041
12:11:03.016	0.233717
12:11:03.416	0.243844
12:11:03.716	0.230111
12:11:04.116	0.220556
12:11:04.416	0.250802
12:11:04.816	0.247806
12:11:05.116	0.232875
12:11:05.515	0.235266
12:11:05.815	0.231154
12:11:06.216	0.236940
12:11:06.516	0.229830
12:11:06.816	0.233563
12:11:07.216	0.237839
12:11:07.515	0.231679
12:11:07.916	0.225204
12:11:08.215	0.230360
12:11:08.616	0.231282
12:11:08.916	0.218801
12:11:09.316	0.221100
12:11:09.616	0.220841
12:11:10.016	0.230669
12:11:10.316	0.234141
12:11:10.715	0.238773
12:11:11.016	0.249501
12:11:11.416	0.234160
12:11:11.716	0.239626
12:11:12.116	0.251966
12:11:12.416	0.235535
12:11:12.816	0.225406
12:11:13.116	0.221819
12:11:13.516	0.229214
12:11:13.816	0.238829
12:11:14.216	0.237326
12:11:14.516	0.231862
12:11:14.916	0.218721
12:11:15.216	0.201636
12:11:15.616	0.231929
12:11:15.916	0.244844
12:11:16.315	0.233856
12:11:16.617	0.241673
12:11:16.916	0.247239
12:11:17.316	0.238240
12:11:17.616	0.238425
12:11:18.016	0.242823
12:11:18.316	0.245464
12:11:18.716	0.241755
12:11:19.016	0.230605
12:11:19.416	0.230948
12:11:19.716	0.247498
12:11:20.115	0.256032
12:11:20.416	0.244610
12:11:20.816	0.247742
12:11:21.116	0.218253
12:11:21.516	0.232980
12:11:21.816	0.232924
12:11:22.216	0.237363
12:11:22.516	0.226772
12:11:22.915	0.225275
12:11:23.216	0.212028
12:11:23.616	0.228653
12:11:23.916	0.201781
12:11:24.316	0.223867
12:11:24.616	0.236726
12:11:24.916	0.230539
12:11:25.316	0.245245
12:11:25.616	0.237493
12:11:26.016	0.226950
12:11:26.316	0.230190
12:11:26.716	0.233870
12:11:27.016	0.251639
12:11:27.416	0.229275
12:11:27.716	0.221340
12:11:28.116	0.213375
12:11:28.416	0.233423
12:11:28.816	0.242814
12:11:29.116	0.250376
12:11:29.515	0.201412
12:11:29.816	0.216331
12:11:30.216	0.228314
12:11:30.516	0.229699
12:11:30.916	0.218621
12:11:31.216	0.240436
12:11:31.616	0.229805
12:11:31.916	0.237839
12:11:32.316	0.226492
12:11:32.616	0.218325
12:11:33.016	0.239316
12:11:33.315	0.222125
12:11:33.716	0.212368
12:11:34.016	0.211934
12:11:34.416	0.249501
12:11:34.716	0.233910
12:11:35.116	0.211354
12:11:35.416	0.213273
12:11:35.816	0.250216
12:11:36.116	0.221591
12:11:36.516	0.204402
12:11:36.816	0.210776
12:11:37.216	0.217468
12:11:37.516	0.202042
12:11:37.916	0.210742
12:11:38.216	0.209755
12:11:38.616	0.226853
12:11:38.916	0.230914
12:11:39.316	0.233613
12:11:39.616	0.227936
12:11:40.016	0.218495
12:11:40.316	0.208905
12:11:40.716	0.223964
12:11:41.016	0.236898
12:11:41.416	0.233331
12:11:41.716	0.214860
12:11:42.116	0.217381
12:11:42.416	0.251191
12:11:42.816	0.231166
12:11:43.116	0.221419
12:11:43.515	0.227200
12:11:43.816	0.208193
12:11:44.116	0.199665
12:11:44.516	0.224312
12:11:44.816	0.213437
12:11:45.216	0.213124
12:11:45.516	0.199756
12:11:45.916	0.213570
12:11:46.216	0.222837
12:11:46.616	0.234595
12:11:46.916	0.222591
12:11:47.316	0.206098
12:11:47.616	0.207542
12:11:48.016	0.218975
12:11:48.316	0.238250
12:11:48.716	0.228543
12:11:49.015	0.220120
12:11:49.416	0.201048
12:11:49.716	0.185428
12:11:50.016	0.192524
12:11:50.416	0.201636
12:11:50.716	0.217802
12:11:51.016	0.248839
12:11:51.416	0.227312
12:11:51.716	0.204722
12:11:52.116	0.223053
12:11:52.417	0.218280
12:11:52.816	0.219614
12:11:53.116	0.223860
12:11:53.416	0.223895
12:11:53.816	0.222644
12:11:54.115	0.241807
12:11:54.516	0.233655
12:11:54.815	0.231375
12:11:55.216	0.219247
12:11:55.516	0.220845
12:11:55.916	0.220829
12:11:56.216	0.228791
12:11:56.616	0.228503
12:11:56.916	0.222324
12:11:57.216	0.202747
12:11:57.615	0.209965
12:11:57.917	0.221065
12:11:58.316	0.220195
12:11:58.616	0.222721
12:11:59.016	0.207960
12:11:59.316	0.202915
12:11:59.716	0.213709
12:12:00.015	0.213043
12:12:00.316	0.219574
12:12:00.716	0.213383
12:12:01.016	0.227373
12:12:01.416	0.225904
12:12:01.716	0.220036
12:12:02.116	0.205722
12:12:02.416	0.193327
12:12:02.816	0.232159
12:12:03.116	0.207532
12:12:03.516	0.179854
12:12:03.816	0.186484
12:12:04.216	0.234689
12:12:04.516	0.217758
12:12:04.916	0.196460
12:12:05.216	0.199119
12:12:05.516	0.223054
12:12:05.916	0.212967
12:12:06.216	0.179210
12:12:06.616	0.225960
12:12:06.916	0.216163
12:12:07.216	0.204383
12:12:07.616	0.224133
12:12:07.916	0.190263
12:12:08.316	0.232279
12:12:08.616	0.223007
12:12:09.016	0.216363
12:12:09.316	0.209346
12:12:09.616	0.201235
12:12:10.016	0.183742
12:12:10.316	0.166304
12:12:10.716	0.172448
12:12:11.016	0.190318
12:12:11.316	0.235624
12:12:11.716	0.222918
12:12:12.016	0.223904
12:12:12.416	0.236843
12:12:12.716	0.229530
12:12:13.116	0.217984
12:12:13.416	0.169316
12:12:13.816	0.175922
12:12:14.116	0.202982
12:12:14.516	0.191235
12:12:14.816	0.203700
12:12:15.216	0.213629
12:12:15.516	0.215321
12:12:15.916	0.214567
12:12:16.217	0.220402
12:12:16.615	0.213948
12:12:16.916	0.230920
12:12:17.316	0.213141
12:12:17.616	0.198006
12:12:18.016	0.191044
12:12:18.316	0.206547
12:12:18.716	0.214315
12:12:19.016	0.187870
12:12:19.416	0.182481
12:12:19.716	0.202752
12:12:20.116	0.219095
12:12:20.416	0.196208
12:12:20.816	0.233044
12:12:21.116	0.189538
12:12:21.416	0.183233
12:12:21.816	0.198019
12:12:22.116	0.214998
12:12:22.516	0.224439
12:12:22.816	0.209536
12:12:23.116	0.211728
12:12:23.516	0.194242
12:12:23.916	0.257781
12:12:24.216	0.232073
12:12:24.616	0.200552
12:12:24.916	0.190627
12:12:25.316	0.194710
12:12:25.616	0.201557
12:12:26.016	0.218614
12:12:26.316	0.199444
12:12:26.716	0.214142
12:12:27.016	0.189889
12:12:27.416	0.195006
12:12:27.716	0.202738
12:12:28.116	0.215893
12:12:28.416	0.205819
12:12:28.816	0.161802
12:12:29.116	0.173003
12:12:29.416	0.189104
12:12:29.816	0.180644
12:12:30.116	0.181433
12:12:30.516	0.204925
12:12:30.816	0.199182
12:12:31.216	0.215160
12:12:31.516	0.215004
12:12:31.916	0.207079
12:12:32.216	0.205599
12:12:32.616	0.208280
12:12:32.916	0.212461
12:12:33.316	0.213260
12:12:33.616	0.185524
12:12:34.016	0.191440
12:12:34.316	0.189228
12:12:34.616	0.225588
12:12:35.016	0.179644
12:12:35.316	0.205313
12:12:35.716	0.208356
12:12:36.016	0.216691
12:12:36.416	0.178814
12:12:36.716	0.181831
12:12:37.116	0.180232
12:12:37.416	0.188871
12:12:37.716	0.200470
12:12:38.116	0.207414
12:12:38.416	0.216146
12:12:38.816	0.197581
12:12:39.116	0.167077
12:12:39.516	0.183543
12:12:39.816	0.201565
12:12:40.216	0.196898
12:12:40.516	0.190476
12:12:40.916	0.203443
12:12:41.216	0.218615
12:12:41.616	0.229680
12:12:41.916	0.209329
12:12:42.316	0.201218
12:12:42.616	0.207772
12:12:43.016	0.216206
12:12:43.316	0.224278
12:12:43.616	0.216413
12:12:44.016	0.211101
12:12:44.316	0.209468
12:12:44.616	0.187773
12:12:45.016	0.213338
12:12:45.316	0.210431
12:12:45.716	0.211496
12:12:46.016	0.206550
12:12:46.416	0.214172
12:12:46.716	0.212184
12:12:47.116	0.218623
12:12:47.416	0.205118
12:12:47.816	0.224740
12:12:48.116	0.222750
12:12:48.416	0.216470
12:12:48.816	0.218358
12:12:49.116	0.224384
12:12:49.516	0.231443
12:12:49.817	0.225124
12:12:50.216	0.207502
12:12:50.516	0.203354
12:12:50.816	0.238802
12:12:51.216	0.240613
12:12:51.516	0.231406
12:12:51.817	0.224326
12:12:52.216	0.223049
12:12:52.516	0.217660
12:12:52.916	0.206744
12:12:53.216	0.212571
12:12:53.616	0.219318
12:12:53.916	0.226736
12:12:54.316	0.210385
12:12:54.617	0.233271
12:12:55.016	0.234268
12:12:55.316	0.220689
12:12:55.716	0.217453
12:12:56.016	0.226875
12:12:56.416	0.226170
12:12:56.716	0.229733
12:12:57.116	0.221293
12:12:57.416	0.218667
12:12:57.816	0.213637
12:12:58.117	0.205631
12:12:58.516	0.221367
12:12:58.816	0.209630
12:12:59.216	0.224361
12:12:59.516	0.223033
12:12:59.916	0.223881
12:13:00.216	0.187475
12:13:00.616	0.215291
12:13:00.916	0.240966
12:13:01.316	0.232739
12:13:01.617	0.212060
12:13:02.016	0.221579
12:13:02.317	0.219654
12:13:02.716	0.218524
12:13:03.016	0.213186
12:13:03.416	0.212709
12:13:03.716	0.213640
12:13:04.117	0.213660
12:13:04.416	0.240914
12:13:04.716	0.231673
12:13:05.116	0.208650
12:13:05.416	0.235165
12:13:05.816	0.214935
12:13:06.116	0.203658
12:13:06.516	0.211503
12:13:06.816	0.211399
12:13:07.217	0.214332
12:13:07.516	0.194852
12:13:07.916	0.227797
12:13:08.216	0.212646
12:13:08.616	0.184855
12:13:08.916	0.210183
12:13:09.316	0.187537
12:13:09.616	0.201867
12:13:09.916	0.195596
12:13:10.316	0.208002
12:13:10.616	0.206082
12:13:11.016	0.197900
12:13:11.316	0.200656
12:13:11.616	0.201997
12:13:12.017	0.188489
12:13:12.316	0.207979
12:13:12.716	0.207932
12:13:13.016	0.207704
12:13:13.416	0.217553
12:13:13.717	0.196413
12:13:14.116	0.183879
12:13:14.416	0.200770
12:13:14.816	0.195910
12:13:15.117	0.189798
12:13:15.417	0.200278
12:13:15.816	0.169781
12:13:16.116	0.165943
12:13:16.516	0.211918
12:13:16.916	0.168553
12:13:17.216	0.233474
12:13:17.616	0.181002
12:13:17.916	0.186958
12:13:18.316	0.211415
12:13:18.616	0.188495
12:13:18.917	0.192526
12:13:19.316	0.185583
12:13:19.616	0.194705
12:13:20.016	0.194613
12:13:20.316	0.197432
12:13:20.616	0.164080
12:13:21.016	0.203691
12:13:21.316	0.198297
12:13:21.717	0.191212
12:13:22.016	0.194334
12:13:22.417	0.190896
12:13:22.716	0.210784
12:13:23.016	0.216510
12:13:23.416	0.201669
12:13:23.717	0.199955
12:13:24.116	0.185880
12:13:24.416	0.172249
12:13:24.817	0.218332
12:13:25.116	0.213808
12:13:25.517	0.209652
12:13:25.817	0.200762
12:13:26.216	0.189881
12:13:26.517	0.187434
12:13:26.916	0.171463
12:13:27.216	0.183742
12:13:27.616	0.191755
12:13:27.917	0.189156
12:13:28.216	0.174993
12:13:28.617	0.179794
12:13:28.917	0.204255
12:13:29.317	0.211348
12:13:29.616	0.197000
12:13:29.916	0.198403
12:13:30.316	0.150663
12:13:30.617	0.190442
12:13:31.016	0.205465
12:13:31.316	0.199864
12:13:31.716	0.185293
12:13:32.017	0.185720
12:13:32.416	0.173580
12:13:32.717	0.202386
12:13:33.116	0.177538
12:13:33.416	0.197522
12:13:33.717	0.192796
12:13:34.117	0.193061
12:13:34.416	0.187112
12:13:34.717	0.182326
12:13:35.116	0.198999
12:13:35.416	0.193372
12:13:35.816	0.192542
12:13:36.117	0.216810
12:13:36.516	0.225972
12:13:36.816	0.199662
12:13:37.217	0.189255
12:13:37.516	0.194367
12:13:37.916	0.194347
12:13:38.216	0.186458
12:13:38.616	0.184362
12:13:38.916	0.181322
12:13:39.316	0.197192
12:13:39.616	0.200266
12:13:39.916	0.211555
12:13:40.316	0.201577
12:13:40.617	0.206783
12:13:41.016	0.186703
12:13:41.317	0.166620
12:13:41.616	0.171598
12:13:42.017	0.185044
12:13:42.416	0.205714
12:13:42.716	0.158579
12:13:43.116	0.184427
12:13:43.417	0.183121
12:13:43.816	0.201117
12:13:44.116	0.189426
12:13:44.516	0.186308
12:13:44.816	0.163321
12:13:45.216	0.183633
12:13:45.516	0.214368
12:13:45.916	0.211867
12:13:46.216	0.213553
12:13:46.616	0.193056
12:13:46.916	0.192397
12:13:47.316	0.212000
12:13:47.616	0.189568
12:13:47.916	0.197450
12:13:48.316	0.196303
12:13:48.616	0.201712
12:13:48.917	0.206092
12:13:49.316	0.203407
12:13:49.616	0.206952
12:13:50.016	0.217964
12:13:50.316	0.196115
12:13:50.717	0.196102
12:13:51.017	0.186429
12:13:51.416	0.197503
12:13:51.716	0.201233
12:13:52.116	0.192386
12:13:52.416	0.191199
12:13:52.816	0.213475
12:13:53.116	0.201665
12:13:53.517	0.208869
12:13:53.817	0.208049
12:13:54.217	0.199019
12:13:54.516	0.209477
12:13:54.916	0.199801
12:13:55.217	0.196199
12:13:55.617	0.201898
12:13:55.917	0.167751
12:13:56.216	0.168628
12:13:56.616	0.231718
12:13:56.916	0.217576
12:13:57.317	0.181228
12:13:57.616	0.209554
12:13:57.917	0.199534
12:13:58.316	0.203477
12:13:58.617	0.215476
12:13:59.017	0.196380
12:13:59.316	0.217118
12:13:59.716	0.211663
12:14:00.016	0.210904
12:14:00.417	0.189113
12:14:00.716	0.197458
12:14:01.117	0.206270
12:14:01.416	0.187014
12:14:01.816	0.188552
12:14:02.117	0.180703
12:14:02.516	0.195376
12:14:02.817	0.199477
12:14:03.117	0.192858
12:14:03.517	0.203805
12:14:03.816	0.172931
12:14:04.216	0.207946
12:14:04.517	0.218558
12:14:04.916	0.209068
12:14:05.216	0.177407
12:14:05.616	0.197957
12:14:05.916	0.199326
12:14:06.317	0.178021
12:14:06.617	0.211653
12:14:06.917	0.197290
12:14:07.317	0.183633
12:14:07.616	0.167175
12:14:08.017	0.177424
12:14:08.317	0.188611
12:14:08.716	0.193255
12:14:09.017	0.179250
12:14:09.317	0.195642
12:14:09.717	0.199514
12:14:10.017	0.187720
12:14:10.317	0.196303
12:14:10.717	0.182523
12:14:11.016	0.182013
12:14:11.416	0.195277
12:14:11.717	0.184555
12:14:12.117	0.195253
12:14:12.417	0.189954
12:14:12.817	0.173759
12:14:13.117	0.184236
12:14:13.516	0.179186
12:14:13.817	0.165776
12:14:14.116	0.188132
12:14:14.517	0.172333
12:14:14.816	0.164099
12:14:15.217	0.196504
12:14:15.516	0.175400
12:14:15.917	0.166446
12:14:16.217	0.169594
12:14:16.617	0.169754
12:14:16.917	0.181020
12:14:17.316	0.169550
12:14:17.617	0.160504
12:14:18.017	0.180702
12:14:18.317	0.181244
12:14:18.717	0.170964
12:14:19.017	0.196842
12:14:19.416	0.166538
12:14:19.717	0.192427
12:14:20.017	0.170704
12:14:20.417	0.183901
12:14:20.717	0.188060
12:14:21.116	0.152736
12:14:21.417	0.166628
12:14:21.817	0.164023
12:14:22.116	0.160599
12:14:22.517	0.138980
12:14:22.817	0.139410
12:14:23.117	0.152147
12:14:23.517	0.170539
12:14:23.817	0.186745
12:14:24.217	0.171437
12:14:24.517	0.192700
12:14:24.918	0.166047
12:14:25.217	0.175435
12:14:25.617	0.184316
12:14:25.917	0.174244
12:14:26.317	0.164612
12:14:26.617	0.156571
12:14:27.017	0.194964
12:14:27.318	0.156764
12:14:27.717	0.148758
12:14:28.016	0.158952
12:14:28.317	0.175708
12:14:28.717	0.161394
12:14:29.017	0.158625
12:14:29.417	0.166088
12:14:29.717	0.202957
12:14:30.117	0.169097
12:14:30.416	0.172704
12:14:30.817	0.197892
12:14:31.117	0.164486
12:14:31.518	0.155169
12:14:31.817	0.174962
12:14:32.117	0.148413
12:14:32.517	0.177045
12:14:32.817	0.173191
12:14:33.217	0.193372
12:14:33.517	0.198225
12:14:33.817	0.180980
12:14:34.217	0.191903
12:14:34.517	0.198962
12:14:34.917	0.165599
12:14:35.217	0.183846
12:14:35.617	0.179251
12:14:35.917	0.186012
12:14:36.317	0.171880
12:14:36.617	0.186648
12:14:37.017	0.166062
12:14:37.317	0.178198
12:14:37.717	0.157776
12:14:38.017	0.177218
12:14:38.417	0.181412
12:14:38.717	0.191038
12:14:39.117	0.192419
12:14:39.417	0.183014
12:14:39.818	0.191414
12:14:40.117	0.158394
12:14:40.517	0.166969
12:14:40.817	0.161562
12:14:41.217	0.194834
12:14:41.517	0.194385
12:14:41.917	0.191717
12:14:42.218	0.197683
12:14:42.517	0.200505
12:14:42.917	0.198595
12:14:43.217	0.203251
12:14:43.617	0.184062
12:14:43.917	0.167606
12:14:44.217	0.183269
12:14:44.617	0.187013
12:14:44.917	0.183887
12:14:45.317	0.192778
12:14:45.617	0.194499
12:14:46.017	0.199759
12:14:46.317	0.174730
12:14:46.617	0.183192
12:14:47.016	0.194115
12:14:47.317	0.196992
12:14:47.717	0.199021
12:14:48.017	0.213074
12:14:48.317	0.198845
12:14:48.717	0.187179
12:14:49.017	0.194908
12:14:49.417	0.181846
12:14:49.717	0.185835
12:14:50.117	0.198189
12:14:50.417	0.184939
12:14:50.817	0.195673
12:14:51.118	0.195751
12:14:51.417	0.171445
12:14:51.817	0.181889
12:14:52.117	0.180269
12:14:52.417	0.172049
12:14:52.817	0.193666
12:14:53.117	0.196247
12:14:53.417	0.179108
12:14:53.817	0.180757
12:14:54.117	0.176992
12:14:54.517	0.188210
12:14:54.817	0.181994
12:14:55.217	0.167978
12:14:55.517	0.170937
12:14:55.917	0.166237
12:14:56.217	0.183310
12:14:56.617	0.178830
12:14:56.917	0.166788
12:14:57.317	0.176185
12:14:57.616	0.185735
12:14:58.016	0.188067
12:14:58.317	0.178815
12:14:58.717	0.184165
12:14:59.017	0.188009
12:14:59.317	0.156823
12:14:59.717	0.137327
12:15:00.017	0.159261
12:15:00.417	0.170264
12:15:00.717	0.201217
12:15:01.117	0.186945
12:15:01.417	0.181272
12:15:01.817	0.163446
12:15:02.117	0.155773
12:15:02.417	0.151303
12:15:02.817	0.169469
12:15:03.117	0.152097
12:15:03.517	0.182873
12:15:03.817	0.173831
12:15:04.217	0.172925
12:15:04.517	0.176003
12:15:04.917	0.170078
12:15:05.217	0.160785
12:15:05.617	0.169260
12:15:05.917	0.163307
12:15:06.317	0.169337
12:15:06.617	0.192813
12:15:07.017	0.175195
12:15:07.317	0.151458
12:15:07.617	0.177159
12:15:08.016	0.165020
12:15:08.317	0.172316
12:15:08.717	0.175083
12:15:09.017	0.154926
12:15:09.316	0.161967
12:15:09.717	0.179457
12:15:10.017	0.176673
12:15:10.417	0.170904
12:15:10.716	0.166768
12:15:11.117	0.165440
12:15:11.417	0.164119
12:15:11.817	0.165210
12:15:12.117	0.159366
12:15:12.517	0.169603
12:15:12.817	0.176341
12:15:13.217	0.172595
12:15:13.517	0.158318
12:15:13.916	0.150004
12:15:14.217	0.165672
12:15:14.517	0.165230
12:15:14.917	0.159493
12:15:15.217	0.165804
12:15:15.617	0.169399
12:15:15.917	0.161938
12:15:16.317	0.144189
12:15:16.617	0.125913
12:15:17.017	0.168736
12:15:17.417	0.171515
12:15:17.717	0.159601
12:15:18.117	0.157438
12:15:18.417	0.158480
12:15:18.817	0.160105
12:15:19.117	0.165129
12:15:19.517	0.149447
12:15:19.817	0.137290
12:15:20.217	0.155464
12:15:20.517	0.148111
12:15:20.917	0.144264
12:15:21.217	0.167437
12:15:21.617	0.162758
12:15:21.917	0.170741
12:15:22.317	0.158138
12:15:22.617	0.149495
12:15:23.017	0.144541
12:15:23.317	0.141485
12:15:23.617	0.178777
12:15:24.017	0.161867
12:15:24.317	0.169578
12:15:24.717	0.172132
12:15:25.017	0.154003
12:15:25.417	0.154874
12:15:25.717	0.154422
12:15:26.117	0.159734
12:15:26.417	0.165113
12:15:26.817	0.161837
12:15:27.117	0.161875
12:15:27.517	0.158693
12:15:27.817	0.145780
12:15:28.217	0.144744
12:15:28.517	0.156980
12:15:28.916	0.160786
12:15:29.217	0.163742
12:15:29.617	0.151822
12:15:30.017	0.131333
12:15:30.317	0.163765
12:15:30.717	0.166345
12:15:31.017	0.153924
12:15:31.417	0.148895
12:15:31.717	0.171480
12:15:32.117	0.149978
12:15:32.417	0.162499
12:15:32.717	0.170711
12:15:33.118	0.165560
12:15:33.417	0.151906
12:15:33.817	0.156748
12:15:34.117	0.152580
12:15:34.517	0.171111
12:15:34.817	0.133539
12:15:35.217	0.154181
12:15:35.517	0.157694
12:15:35.917	0.147830
12:15:36.217	0.161946
12:15:36.617	0.164058
12:15:36.917	0.150831
12:15:37.317	0.154527
12:15:37.617	0.143498
12:15:38.017	0.168063
12:15:38.317	0.172603
12:15:38.717	0.127896
12:15:39.017	0.131135
12:15:39.417	0.133134
12:15:39.717	0.138143
12:15:40.117	0.156098
12:15:40.417	0.159976
12:15:40.817	0.154714
12:15:41.117	0.159239
12:15:41.517	0.172239
12:15:41.817	0.154850
12:15:42.217	0.169556
12:15:42.517	0.155905
12:15:42.917	0.155505
12:15:43.217	0.150683
12:15:43.617	0.162192
12:15:43.917	0.161243
12:15:44.317	0.158135
12:15:44.617	0.153563
12:15:45.017	0.147995
12:15:45.317	0.158186
12:15:45.617	0.162561
12:15:46.017	0.152971
12:15:46.317	0.159582
12:15:46.717	0.165412
12:15:47.017	0.165970
12:15:47.417	0.153574
12:15:47.717	0.170579
12:15:48.117	0.152115
12:15:48.417	0.167438
12:15:48.817	0.157766
12:15:49.117	0.145069
12:15:49.517	0.146548
12:15:49.817	0.150711
12:15:50.217	0.151661
12:15:50.517	0.149724
12:15:50.817	0.165970
12:15:51.217	0.173764
12:15:51.517	0.163676
12:15:51.917	0.158104
12:15:52.217	0.160436
12:15:52.518	0.157215
12:15:52.917	0.143132
12:15:53.217	0.169537
12:15:53.617	0.151660
12:15:53.917	0.147534
12:15:54.318	0.156289
12:15:54.617	0.167269
12:15:55.017	0.160730
12:15:55.317	0.156743
12:15:55.717	0.150896
12:15:56.018	0.160873
12:15:56.417	0.166021
12:15:56.717	0.151352
12:15:57.117	0.130719
12:15:57.417	0.151172
12:15:57.718	0.148152
12:15:58.117	0.153983
12:15:58.417	0.151571
12:15:58.817	0.165138
12:15:59.117	0.137963
12:15:59.518	0.154080
12:15:59.817	0.144737
12:16:00.217	0.149899
12:16:00.517	0.157296
12:16:00.917	0.149077
12:16:01.217	0.152717
12:16:01.617	0.140983
12:16:01.917	0.150894
12:16:02.317	0.152335
12:16:02.617	0.140140
12:16:02.918	0.161358
12:16:03.317	0.151207
12:16:03.618	0.145989
12:16:03.917	0.157708
12:16:04.317	0.153476
12:16:04.617	0.150707
12:16:05.017	0.158589
12:16:05.317	0.144755
12:16:05.718	0.148076
12:16:06.017	0.156457
12:16:06.417	0.145394
12:16:06.717	0.142719
12:16:07.117	0.151402
12:16:07.417	0.162231
12:16:07.817	0.134787
12:16:08.117	0.139787
12:16:08.517	0.149149
12:16:08.817	0.155189
12:16:09.217	0.140614
12:16:09.517	0.138907
12:16:09.917	0.137682
12:16:10.218	0.127705
12:16:10.617	0.171031
12:16:10.917	0.168575
12:16:11.317	0.149079
12:16:11.617	0.142317
12:16:12.017	0.147870
12:16:12.317	0.168007
12:16:12.718	0.154654
12:16:13.018	0.132827
12:16:13.417	0.151606
12:16:13.717	0.147099
12:16:14.118	0.158035
12:16:14.417	0.157623
12:16:14.717	0.160389
12:16:15.117	0.137615
12:16:15.417	0.135519
12:16:15.718	0.153205
12:16:16.117	0.156952
12:16:16.417	0.151941
12:16:16.817	0.145736
12:16:17.117	0.126339
12:16:17.517	0.141587
12:16:17.817	0.150613
12:16:18.118	0.144546
12:16:18.517	0.152217
12:16:18.817	0.150932
12:16:19.118	0.131920
12:16:19.517	0.131236
12:16:19.818	0.136745
12:16:20.218	0.152157
12:16:20.517	0.151282
12:16:20.917	0.152356
12:16:21.218	0.140805
12:16:21.617	0.120846
12:16:21.917	0.117575
12:16:22.317	0.168323
12:16:22.617	0.170757
12:16:22.918	0.159710
12:16:23.317	0.160191
12:16:23.617	0.132881
12:16:24.017	0.154228
12:16:24.317	0.158971
12:16:24.717	0.132578
12:16:25.018	0.154519
12:16:25.417	0.158222
12:16:25.717	0.172793
12:16:26.117	0.158861
12:16:26.417	0.181383
12:16:26.818	0.157354
12:16:27.117	0.138318
12:16:27.517	0.141803
12:16:27.817	0.144789
12:16:28.217	0.142684
12:16:28.517	0.148789
12:16:28.917	0.148477
12:16:29.217	0.146266
12:16:29.617	0.124662
12:16:29.917	0.138486
12:16:30.317	0.140064
12:16:30.618	0.149249
12:16:31.017	0.138525
12:16:31.317	0.149856
12:16:31.618	0.141373
12:16:32.018	0.146514
12:16:32.318	0.140386
12:16:32.717	0.139460
12:16:33.018	0.129592
12:16:33.417	0.156990
12:16:33.717	0.164306
12:16:34.117	0.130503
12:16:34.417	0.105832
12:16:34.817	0.133139
12:16:35.117	0.124151
12:16:35.518	0.156696
12:16:35.817	0.156161
12:16:36.117	0.146633
12:16:36.518	0.131931
12:16:36.817	0.131185
12:16:37.217	0.146587
12:16:37.517	0.146021
12:16:37.917	0.158081
12:16:38.217	0.147261
12:16:38.617	0.140904
12:16:38.917	0.136642
12:16:39.317	0.133369
12:16:39.617	0.147557
12:16:39.917	0.138787
12:16:40.317	0.135186
12:16:40.617	0.148206
12:16:40.918	0.141568
12:16:41.318	0.144641
12:16:41.618	0.133799
12:16:42.017	0.153080
12:16:42.318	0.140729
12:16:42.717	0.151805
12:16:43.018	0.147364
12:16:43.418	0.155262
12:16:43.718	0.140130
12:16:44.018	0.131096
12:16:44.417	0.139071
12:16:44.717	0.150542
12:16:45.117	0.141359
12:16:45.518	0.157297
12:16:45.817	0.147087
12:16:46.218	0.138455
12:16:46.517	0.145625
12:16:46.918	0.142878
12:16:47.217	0.139137
12:16:47.618	0.135866
12:16:47.917	0.146960
12:16:48.317	0.136990
12:16:48.618	0.138641
12:16:49.017	0.144643
12:16:49.317	0.141712
12:16:49.717	0.115414
12:16:50.017	0.128134
12:16:50.317	0.138529
12:16:50.717	0.137771
12:16:51.017	0.160493
12:16:51.317	0.144209
12:16:51.718	0.141109
12:16:52.017	0.155712
12:16:52.417	0.152878
12:16:52.718	0.137756
12:16:53.017	0.130677
12:16:53.417	0.139829
12:16:53.717	0.132639
12:16:54.118	0.123932
12:16:54.418	0.156638
12:16:54.817	0.153134
12:16:55.118	0.133651
12:16:55.518	0.126925
12:16:55.818	0.137345
12:16:56.217	0.143234
12:16:56.518	0.148487
12:16:56.917	0.151430
12:16:57.218	0.128909
12:16:57.617	0.116468
12:16:57.917	0.133337
12:16:58.317	0.152105
12:16:58.617	0.132506
12:16:59.018	0.139555
12:16:59.317	0.157903
12:16:59.718	0.131616
12:17:00.017	0.129917
12:17:00.317	0.147074
12:17:00.717	0.149549
12:17:01.018	0.147087
12:17:01.418	0.141583
12:17:01.718	0.125149
12:17:02.117	0.136195
12:17:02.418	0.136533
12:17:02.817	0.126630
12:17:03.118	0.125703
12:17:03.517	0.142161
12:17:03.818	0.151862
12:17:04.217	0.159721
12:17:04.518	0.156764
12:17:04.918	0.146764
12:17:05.217	0.153460
12:17:05.617	0.145302
12:17:05.918	0.139373
12:17:06.317	0.142067
12:17:06.618	0.136749
12:17:07.017	0.145201
12:17:07.317	0.137746
12:17:07.717	0.142396
12:17:08.017	0.145194
12:17:08.318	0.140976
12:17:08.717	0.143593
12:17:09.018	0.124846
12:17:09.418	0.119863
12:17:09.718	0.133596
12:17:10.117	0.137199
12:17:10.417	0.163328
12:17:10.818	0.177469
12:17:11.118	0.157139
12:17:11.517	0.140170
12:17:11.818	0.130763
12:17:12.218	0.141323
12:17:12.518	0.149697
12:17:12.918	0.130678
12:17:13.217	0.128319
12:17:13.617	0.127314
12:17:13.918	0.119422
12:17:14.318	0.154489
12:17:14.617	0.148735
12:17:15.018	0.158131
12:17:15.318	0.132181
12:17:15.718	0.136840
12:17:16.018	0.123484
12:17:16.417	0.142947
12:17:16.718	0.133055
12:17:17.118	0.154895
12:17:17.418	0.171569
12:17:17.818	0.156763
12:17:18.118	0.160708
12:17:18.418	0.163471
12:17:18.818	0.145784
12:17:19.118	0.164135
12:17:19.518	0.160272
12:17:19.818	0.151177
12:17:20.217	0.156933
12:17:20.517	0.171125
12:17:20.918	0.141780
12:17:21.218	0.154560
12:17:21.617	0.191791
12:17:21.918	0.200203
12:17:22.218	0.211108
12:17:22.618	0.224627
12:17:22.918	0.225109
12:17:23.318	0.248814
12:17:23.618	0.256669
12:17:23.918	0.251982
12:17:24.318	0.281126
12:17:24.618	0.312634
12:17:25.018	0.301688
12:17:25.318	0.304888
12:17:25.718	0.338577
12:17:26.018	0.362041
12:17:26.418	0.359008
12:17:26.718	0.367877
12:17:27.118	0.386508
12:17:27.418	0.371055
12:17:27.818	0.399391
12:17:28.117	0.401743
12:17:28.518	0.390780
12:17:28.817	0.406555
12:17:29.217	0.430192
12:17:29.518	0.445983
12:17:29.918	0.447796
12:17:30.218	0.459598
12:17:30.618	0.454976
12:17:30.918	0.469298
12:17:31.318	0.492410
12:17:31.618	0.470998
12:17:32.018	0.469295
12:17:32.318	0.471519
12:17:32.718	0.464554
12:17:33.018	0.482792
12:17:33.318	0.489337
12:17:33.717	0.489439
12:17:34.018	0.516591
12:17:34.318	0.510837
12:17:34.717	0.499185
12:17:35.018	0.481058
12:17:35.418	0.472061
12:17:35.717	0.473685
12:17:36.118	0.482730
12:17:36.518	0.452379
12:17:36.818	0.434932
12:17:37.218	0.453238
12:17:37.518	0.420621
12:17:37.918	0.407528
12:17:38.218	0.413752
12:17:38.618	0.378260
12:17:38.918	0.342252
12:17:39.318	0.294836
12:17:39.618	0.324541
12:17:40.018	0.327016
12:17:40.318	0.311154
12:17:40.618	0.245537
12:17:41.017	0.274447
12:17:41.318	0.255787
12:17:41.618	0.224201
12:17:42.018	0.259739
12:17:42.318	0.265827
12:17:42.618	0.217610
12:17:43.018	0.217401
12:17:43.318	0.219107
12:17:43.718	0.184432
12:17:44.018	0.162515
12:17:44.418	0.174436
12:17:44.717	0.180385
12:17:45.118	0.185637
12:17:45.418	0.173603
12:17:45.818	0.184045
12:17:46.118	0.198656
12:17:46.518	0.167286
12:17:46.818	0.167647
12:17:47.217	0.167064
12:17:47.517	0.169843
12:17:47.918	0.151848
12:17:48.218	0.170109
12:17:48.518	0.164883
12:17:48.918	0.162978
12:17:49.218	0.154101
12:17:49.618	0.152252
12:17:49.918	0.147229
12:17:50.318	0.159079
12:17:50.618	0.151393
12:17:51.018	0.151864
12:17:51.318	0.144050
12:17:51.718	0.144417
12:17:52.018	0.153795
12:17:52.418	0.156810
12:17:52.718	0.141635
12:17:53.118	0.134755
12:17:53.418	0.143722
12:17:53.818	0.152908
12:17:54.118	0.152656
12:17:54.518	0.136391
12:17:54.818	0.153556
12:17:55.218	0.133898
12:17:55.518	0.144713
12:17:55.918	0.106848
12:17:56.218	0.123929
12:17:56.618	0.124605
12:17:56.918	0.128240
12:17:57.318	0.131336
12:17:57.619	0.132837
12:17:58.018	0.129771
12:17:58.318	0.130417
12:17:58.717	0.129150
12:17:59.018	0.126347
12:17:59.418	0.119578
12:17:59.718	0.117471
12:18:00.118	0.129602
12:18:00.418	0.143277
12:18:00.818	0.135921
12:18:01.118	0.126505
12:18:01.517	0.134997
12:18:01.818	0.115780
12:18:02.218	0.135199
12:18:02.518	0.120053
12:18:02.919	0.113349
12:18:03.218	0.136940
12:18:03.618	0.136951
12:18:03.918	0.124862
12:18:04.318	0.106203
12:18:04.618	0.124520
12:18:05.018	0.119847