Chart Recorder Data File Tue, Sep 24, 2024 12:04 PM
Time (s)	CH1 (V)  
11:46:20.907	1.847461
11:46:21.707	1.797328
11:46:22.008	1.817397
11:46:22.407	1.773063
11:46:22.707	1.807767
11:46:23.007	1.827168
11:46:23.408	1.814755
11:46:23.707	1.823556
11:46:24.008	1.830785
11:46:24.407	1.831265
11:46:24.708	1.833987
11:46:25.007	1.806887
11:46:25.407	1.835554
11:46:25.707	1.886765
11:46:26.107	1.811187
11:46:26.407	1.801221
11:46:26.807	1.795110
11:46:27.108	1.808497
11:46:27.507	1.779404
11:46:27.807	1.781001
11:46:28.207	1.784765
11:46:28.508	1.795666
11:46:28.908	1.772225
11:46:29.208	1.754030
11:46:29.608	1.773243
11:46:29.907	1.782569
11:46:30.208	1.792919
11:46:30.608	1.822239
11:46:30.908	1.820043
11:46:31.208	1.777198
11:46:31.607	1.820264
11:46:31.907	1.819147
11:46:32.208	1.773468
11:46:32.608	1.813218
11:46:32.908	1.796506
11:46:33.208	1.841648
11:46:33.608	1.846116
11:46:33.908	1.808601
11:46:34.308	1.793945
11:46:34.608	1.773446
11:46:35.007	1.755030
11:46:35.307	1.784895
11:46:35.608	1.767137
11:46:36.008	1.752975
11:46:36.308	1.728179
11:46:36.707	1.762435
11:46:37.008	1.770229
11:46:37.308	1.757623
11:46:37.708	1.751943
11:46:38.008	1.765409
11:46:38.408	1.769056
11:46:38.708	1.756186
11:46:39.007	1.727418
11:46:39.407	1.681435
11:46:39.708	1.739267
11:46:40.108	1.716845
11:46:40.408	1.699471
11:46:40.808	1.706768
11:46:41.108	1.667588
11:46:41.507	1.668239
11:46:41.808	1.655941
11:46:42.208	1.731116
11:46:42.508	1.764380
11:46:42.907	1.784574
11:46:43.208	1.775541
11:46:43.608	1.751065
11:46:43.908	1.729649
11:46:44.207	1.803635
11:46:44.608	1.748291
11:46:44.908	1.755978
11:46:45.208	1.751082
11:46:45.608	1.767771
11:46:45.907	1.782814
11:46:46.209	1.731685
11:46:46.608	1.810158
11:46:46.907	1.830175
11:46:47.208	1.793425
11:46:47.607	1.820052
11:46:47.908	1.810351
11:46:48.308	1.768783
11:46:48.608	1.781017
11:46:49.008	1.812753
11:46:49.308	1.762016
11:46:49.708	1.808076
11:46:50.007	1.768374
11:46:50.408	1.812281
11:46:50.708	1.824488
11:46:51.008	1.822284
11:46:51.408	1.719414
11:46:51.708	1.706981
11:46:52.008	1.749405
11:46:52.407	1.727448
11:46:52.707	1.691899
11:46:53.008	1.710386
11:46:53.408	1.726436
11:46:53.708	1.737394
11:46:54.107	1.670395
11:46:54.407	1.644072
11:46:54.807	1.697684
11:46:55.108	1.715612
11:46:55.408	1.694105
11:46:55.807	1.668001
11:46:56.108	1.698747
11:46:56.408	1.677951
11:46:56.807	1.670815
11:46:57.107	1.597892
11:46:57.509	1.636392
11:46:57.807	1.643090
11:46:58.108	1.592238
11:46:58.507	1.636025
11:46:58.808	1.656361
11:46:59.108	1.651464
11:46:59.508	1.643320
11:46:59.808	1.684798
11:47:00.107	1.718463
11:47:00.508	1.747250
11:47:00.808	1.808283
11:47:01.209	1.852349
11:47:01.508	1.891445
11:47:01.909	2.029889
11:47:02.208	2.121211
11:47:02.608	2.128839
11:47:02.907	2.163253
11:47:03.208	2.291350
11:47:04.507	2.363457
11:47:04.808	2.417885
11:47:05.107	2.448382
11:47:05.508	2.589135
11:47:05.808	2.623731
11:47:06.108	2.655573
11:47:06.508	2.622539
11:47:06.808	2.668211
11:47:07.107	2.629336
11:47:07.508	2.674313
11:47:07.808	2.675259
11:47:08.108	2.665898
11:47:08.508	2.726390
11:47:08.808	2.766278
11:47:09.107	2.800130
11:47:09.508	2.786177
11:47:09.808	2.851057
11:47:10.208	2.860021
11:47:10.507	2.831374
11:47:10.908	2.800029
11:47:11.209	2.780123
11:47:11.608	2.811819
11:47:11.908	2.802548
11:47:12.308	2.678256
11:47:12.607	2.680625
11:47:13.008	2.647329
11:47:13.308	2.641702
11:47:13.708	2.640708
11:47:14.008	2.606074
11:47:14.308	2.548358
11:47:14.708	2.542125
11:47:15.008	2.520828
11:47:15.308	2.446143
11:47:15.707	2.392467
11:47:16.007	2.342912
11:47:16.408	2.315401
11:47:16.708	2.182028
11:47:17.108	2.076173
11:47:17.407	2.057168
11:47:17.808	1.722700
11:47:19.108	1.661793
11:47:19.408	1.498941
11:47:19.808	1.414294
11:47:20.108	1.337666
11:47:20.508	1.295707
11:47:20.808	1.263308
11:47:21.208	1.217236
11:47:21.508	1.215581
11:47:21.908	1.161609
11:47:22.208	1.124785
11:47:22.508	1.096128
11:47:22.908	1.109586
11:47:23.208	1.066248
11:47:23.508	1.053617
11:47:23.907	0.994198
11:47:24.208	0.944737
11:47:24.508	0.962647
11:47:24.908	1.004348
11:47:25.208	0.952726
11:47:25.508	0.963501
11:47:25.908	0.942461
11:47:26.208	0.952605
11:47:26.508	0.944955
11:47:26.908	0.939328
11:47:27.208	0.896915
11:47:27.608	0.892761
11:47:27.908	0.906400
11:47:28.308	0.934795
11:47:28.607	0.887627
11:47:28.908	0.833337
11:47:29.308	0.898323
11:47:29.608	0.906421
11:47:30.008	0.874521
11:47:30.308	0.917506
11:47:30.608	0.951391
11:47:31.007	1.065210
11:47:31.309	1.135017
11:47:31.608	1.159029
11:47:32.008	1.228995
11:47:32.308	1.284288
11:47:32.608	1.370580
11:47:33.008	1.507438
11:47:33.308	1.620870
11:47:33.607	1.681230
11:47:34.008	1.754720
11:47:34.308	1.889932
11:47:34.708	1.960559
11:47:35.008	1.943579
11:47:35.308	1.957536
11:47:35.707	2.121252
11:47:36.008	2.403774
11:47:37.308	2.448729
11:47:37.608	2.430919
11:47:38.008	2.370326
11:47:38.308	2.461210
11:47:38.608	2.544509
11:47:39.008	2.555294
11:47:39.308	2.512985
11:47:39.708	2.561822
11:47:40.008	2.620173
11:47:40.308	2.651223
11:47:40.708	2.669123
11:47:41.008	2.728233
11:47:41.308	2.731009
11:47:41.708	2.750094
11:47:42.008	2.743378
11:47:42.308	2.715923
11:47:42.708	2.699960
11:47:43.008	2.754518
11:47:43.308	2.757235
11:47:43.708	2.821819
11:47:44.008	2.768726
11:47:44.308	2.719346
11:47:44.709	2.643521
11:47:45.007	2.656025
11:47:45.308	2.635042
11:47:45.708	2.632120
11:47:46.007	2.629318
11:47:46.408	2.474786
11:47:46.707	2.427788
11:47:47.108	2.369634
11:47:47.408	2.212151
11:47:47.708	2.082578
11:47:48.108	1.774694
11:47:49.408	1.633027
11:47:49.708	1.563008
11:47:50.108	1.473921
11:47:50.408	1.372203
11:47:50.808	1.308876
11:47:51.108	1.257850
11:47:51.408	1.185541
11:47:51.808	1.097677
11:47:52.108	1.115659
11:47:52.408	1.128032
11:47:52.808	1.125326
11:47:53.108	1.091234
11:47:53.408	1.081585
11:47:53.808	1.077964
11:47:54.108	1.025950
11:47:54.408	1.004855
11:47:54.808	0.947679
11:47:55.108	0.901816
11:47:55.408	0.894365
11:47:55.808	0.932015
11:47:56.108	0.932831
11:47:56.408	0.898077
11:47:56.808	0.848169
11:47:57.108	0.851890
11:47:57.508	0.865416
11:47:57.808	0.885070
11:47:58.108	0.897045
11:47:58.508	0.876897
11:47:58.808	0.853631
11:47:59.208	0.830991
11:47:59.508	0.846818
11:47:59.808	0.818519
11:48:00.208	0.788210
11:48:00.509	0.819474
11:48:00.808	0.788438
11:48:01.208	0.781754
11:48:01.508	0.760806
11:48:01.908	0.757228
11:48:02.208	0.774026
11:48:02.508	0.767878
11:48:02.908	0.785595
11:48:03.208	0.766299
11:48:03.508	0.756924
11:48:03.908	0.765696
11:48:04.208	0.759080
11:48:04.608	0.795225
11:48:04.908	0.830222
11:48:05.308	0.901724
11:48:05.608	0.950635
11:48:05.908	0.976796
11:48:06.308	0.962279
11:48:06.608	0.942208
11:48:07.008	0.899795
11:48:07.308	0.877893
11:48:07.608	0.868767
11:48:08.008	0.860232
11:48:08.308	0.804554
11:48:08.708	0.769268
11:48:09.008	0.742255
11:48:09.408	0.724521
11:48:09.708	0.753653
11:48:10.108	0.746387
11:48:10.408	0.736812
11:48:10.708	0.731779
11:48:11.108	0.715126
11:48:11.508	0.703558
11:48:11.808	0.695357
11:48:12.208	0.708283
11:48:12.508	0.709134
11:48:12.808	0.721496
11:48:13.208	0.738586
11:48:13.508	0.700752
11:48:13.808	0.701381
11:48:14.209	0.709103
11:48:14.508	0.703246
11:48:14.908	0.681781
11:48:15.208	0.689319
11:48:15.608	0.673813
11:48:15.908	0.662828
11:48:16.308	0.706733
11:48:16.608	0.677188
11:48:17.008	0.696897
11:48:17.309	0.707166
11:48:17.608	0.681807
11:48:18.008	0.684636
11:48:18.309	0.688973
11:48:18.708	0.677845
11:48:19.009	0.654331
11:48:19.408	0.638364
11:48:19.709	0.631239
11:48:20.108	0.644888
11:48:20.408	0.649127
11:48:20.708	0.597221
11:48:21.108	0.616463
11:48:21.408	0.608135
11:48:21.709	0.621528
11:48:22.108	0.618297
11:48:22.408	0.614944
11:48:22.808	0.638550
11:48:23.108	0.635631
11:48:23.508	0.585947
11:48:23.808	0.570554
11:48:24.108	0.593558
11:48:24.508	0.573781
11:48:24.808	0.571884
11:48:25.208	0.557642
11:48:25.508	0.565187
11:48:25.908	0.580247
11:48:26.208	0.578560
11:48:26.608	0.529802
11:48:26.908	0.578472
11:48:27.309	0.515874
11:48:27.608	0.509885
11:48:28.008	0.500165
11:48:28.308	0.518939
11:48:28.608	0.502085
11:48:29.008	0.485313
11:48:29.308	0.486189
11:48:29.708	0.456505
11:48:30.008	0.440927
11:48:30.408	0.463168
11:48:30.709	0.467750
11:48:31.108	0.447094
11:48:31.408	0.468419
11:48:31.708	0.470346
11:48:32.108	0.423712
11:48:32.408	0.407199
11:48:32.808	0.401032
11:48:33.109	0.410345
11:48:33.408	0.394017
11:48:33.809	0.408030
11:48:34.108	0.398691
11:48:34.509	0.385919
11:48:34.809	0.421621
11:48:35.208	0.410711
11:48:35.508	0.398112
11:48:35.808	0.359276
11:48:36.209	0.377917
11:48:36.509	0.387044
11:48:36.909	0.385632
11:48:37.208	0.374146
11:48:37.508	0.355906
11:48:37.908	0.370457
11:48:38.209	0.383976
11:48:38.608	0.369772
11:48:38.908	0.357803
11:48:39.308	0.363568
11:48:39.609	0.371911
11:48:40.009	0.354046
11:48:40.309	0.373055
11:48:40.708	0.340664
11:48:41.008	0.360165
11:48:41.408	0.382329
11:48:41.708	0.356316
11:48:42.008	0.369456
11:48:42.408	0.343949
11:48:42.709	0.354074
11:48:43.108	0.341403
11:48:43.408	0.337368
11:48:43.709	0.352602
11:48:44.108	0.350679
11:48:44.408	0.348825
11:48:44.708	0.340315
11:48:45.108	0.327627
11:48:45.408	0.330923
11:48:45.808	0.357763
11:48:46.109	0.370512
11:48:46.508	0.372635
11:48:46.809	0.353381
11:48:47.208	0.335221
11:48:47.508	0.337607
11:48:47.808	0.362665
11:48:48.208	0.356858
11:48:48.508	0.361820
11:48:48.808	0.366405
11:48:49.208	0.353065
11:48:49.509	0.351384
11:48:49.809	0.366498
11:48:50.208	0.362794
11:48:50.508	0.374562
11:48:50.808	0.388920
11:48:51.208	0.373131
11:48:51.509	0.373769
11:48:51.808	0.400915
11:48:52.209	0.397206
11:48:52.509	0.381137
11:48:52.908	0.360458
11:48:53.208	0.370772
11:48:53.508	0.384709
11:48:53.908	0.399276
11:48:54.208	0.411630
11:48:54.608	0.410331
11:48:54.908	0.409436
11:48:55.209	0.418886
11:48:55.608	0.399886
11:48:55.908	0.409356
11:48:56.308	0.434023
11:48:56.609	0.428401
11:48:56.908	0.428420
11:48:57.308	0.434477
11:48:57.608	0.418991
11:48:58.008	0.423427
11:48:58.309	0.397328
11:48:58.709	0.401147
11:48:59.009	0.430298
11:48:59.408	0.410126
11:48:59.708	0.440356
11:49:00.008	0.403114
11:49:00.408	0.409106
11:49:00.709	0.463820
11:49:01.108	0.512847
11:49:01.408	0.541376
11:49:01.708	0.566404
11:49:02.108	0.651673
11:49:02.408	0.739080
11:49:02.809	0.860643
11:49:03.109	0.900053
11:49:03.408	0.983491
11:49:03.809	1.041720
11:49:04.108	1.091681
11:49:04.508	1.179898
11:49:04.809	1.281531
11:49:05.208	1.341915
11:49:05.509	1.348025
11:49:05.908	1.404286
11:49:06.208	1.432486
11:49:06.609	1.495543
11:49:06.909	1.558412
11:49:07.208	1.583157
11:49:07.608	1.610633
11:49:07.909	1.616042
11:49:08.309	1.631935
11:49:08.609	1.677942
11:49:08.909	1.739697
11:49:09.308	1.772610
11:49:09.608	1.774055
11:49:09.909	1.751669
11:49:10.309	1.765313
11:49:10.609	1.784097
11:49:10.908	1.798666
11:49:11.308	1.819019
11:49:11.708	1.875469
11:49:12.008	1.909848
11:49:12.409	1.932452
11:49:12.708	1.880633
11:49:13.008	1.849397
11:49:13.408	1.804673
11:49:13.708	1.941391
11:49:14.008	1.926501
11:49:14.409	1.950362
11:49:14.708	1.956053
11:49:15.108	1.956493
11:49:15.408	1.965971
11:49:15.809	1.920485
11:49:16.108	1.919522
11:49:16.408	1.839211
11:49:16.809	1.740113
11:49:17.108	1.682441
11:49:17.508	1.598071
11:49:17.808	1.463381
11:49:18.109	1.412230
11:49:18.508	1.381799
11:49:18.808	1.261937
11:49:19.208	1.164093
11:49:19.509	1.105518
11:49:19.809	1.008804
11:49:20.208	0.945883
11:49:20.508	0.891161
11:49:20.908	0.832913
11:49:21.208	0.772241
11:49:21.508	0.754843
11:49:21.909	0.727348
11:49:22.209	0.707860
11:49:22.609	0.664258
11:49:22.908	0.648950
11:49:23.209	0.642670
11:49:23.608	0.642788
11:49:23.908	0.642692
11:49:24.208	0.643305
11:49:24.608	0.612327
11:49:24.908	0.605655
11:49:25.209	0.608270
11:49:25.608	0.607875
11:49:25.908	0.628406
11:49:26.309	0.609017
11:49:26.608	0.619542
11:49:27.008	0.610601
11:49:27.309	0.612856
11:49:27.709	0.645495
11:49:28.009	0.664133
11:49:28.408	0.643577
11:49:28.708	0.643698
11:49:29.108	0.611024
11:49:29.408	0.613575
11:49:29.709	0.626921
11:49:30.109	0.629265
11:49:30.409	0.650141
11:49:30.809	0.638630
11:49:31.109	0.621495
11:49:31.509	0.648550
11:49:31.808	0.702984
11:49:32.108	0.720519
11:49:32.508	0.681276
11:49:32.809	0.683629
11:49:33.209	0.732035
11:49:33.508	0.747365
11:49:33.908	0.711233
11:49:34.208	0.725753
11:49:34.609	0.743167
11:49:34.908	0.736270
11:49:35.208	0.779150
11:49:35.609	0.845934
11:49:35.909	0.819196
11:49:36.308	0.836190
11:49:36.609	0.811796
11:49:37.009	0.820377
11:49:37.308	0.811323
11:49:37.709	0.847844
11:49:38.009	0.863287
11:49:38.309	0.883977
11:49:38.709	0.885959
11:49:39.008	0.873560
11:49:39.309	0.872426
11:49:39.709	0.855425
11:49:40.009	0.866516
11:49:40.409	0.899017
11:49:40.709	0.866411
11:49:41.109	0.838387
11:49:41.409	0.847418
11:49:41.809	0.831330
11:49:42.108	0.844395
11:49:42.408	0.827980
11:49:42.809	0.870058
11:49:43.109	0.843337
11:49:43.509	0.824053
11:49:43.810	0.796741
11:49:44.109	0.796226
11:49:44.508	0.765862
11:49:44.808	0.798424
11:49:45.208	0.743661
11:49:45.508	0.712857
11:49:45.909	0.725832
11:49:46.209	0.715916
11:49:46.608	0.671899
11:49:46.908	0.649201
11:49:47.209	0.643651
11:49:47.608	0.644454
11:49:47.909	0.615164
11:49:48.209	0.621091
11:49:48.608	0.569571
11:49:48.909	0.576616
11:49:49.308	0.558105
11:49:49.608	0.537315
11:49:50.009	0.551649
11:49:50.309	0.523328
11:49:50.709	0.489552
11:49:51.008	0.513029
11:49:51.309	0.498151
11:49:51.709	0.513965
11:49:52.009	0.477188
11:49:52.309	0.503932
11:49:52.709	0.470686
11:49:53.009	0.438945
11:49:53.309	0.447421
11:49:53.709	0.419004
11:49:54.009	0.428457
11:49:54.409	0.409048
11:49:54.708	0.406246
11:49:55.109	0.419558
11:49:55.409	0.377168
11:49:55.708	0.373694
11:49:56.109	0.375212
11:49:56.409	0.384000
11:49:56.809	0.346463
11:49:57.108	0.366273
11:49:57.508	0.353752
11:49:57.809	0.362797
11:49:58.209	0.342787
11:49:58.509	0.348195
11:49:58.909	0.351407
11:49:59.208	0.334179
11:49:59.609	0.345987
11:49:59.909	0.312353
11:50:00.209	0.320327
11:50:00.609	0.329086
11:50:00.909	0.297407
11:50:01.308	0.313089
11:50:01.609	0.298425
11:50:02.009	0.329177
11:50:02.309	0.297641
11:50:02.709	0.285828
11:50:03.009	0.317138
11:50:03.409	0.302704
11:50:03.709	0.302346
11:50:04.108	0.256707
11:50:04.409	0.297767
11:50:04.809	0.276087
11:50:05.109	0.282691
11:50:05.409	0.320907
11:50:05.808	0.292645
11:50:06.109	0.299922
11:50:06.409	0.300303
11:50:06.809	0.282627
11:50:07.108	0.289545
11:50:07.409	0.268986
11:50:07.809	0.295254
11:50:08.109	0.297309
11:50:08.509	0.318185
11:50:08.809	0.312477
11:50:09.209	0.281544
11:50:09.509	0.254998
11:50:09.908	0.275648
11:50:10.209	0.265708
11:50:10.609	0.277210
11:50:10.909	0.277352
11:50:11.309	0.289497
11:50:11.609	0.287515
11:50:12.009	0.246269
11:50:12.309	0.267458
11:50:12.608	0.254534
11:50:13.009	0.301308
11:50:13.309	0.298817
11:50:13.709	0.275877
11:50:14.008	0.262290
11:50:14.309	0.300259
11:50:14.709	0.276899
11:50:15.008	0.285391
11:50:15.409	0.305170
11:50:15.709	0.279865
11:50:16.108	0.308549
11:50:16.409	0.318638
11:50:16.809	0.273180
11:50:17.108	0.281940
11:50:17.509	0.290883
11:50:17.809	0.281912
11:50:18.209	0.265054
11:50:18.509	0.275354
11:50:18.909	0.291097
11:50:19.209	0.299446
11:50:19.609	0.298963
11:50:19.909	0.284511
11:50:20.309	0.295340
11:50:20.609	0.263487
11:50:21.009	0.298458
11:50:21.309	0.307460
11:50:21.609	0.286079
11:50:22.009	0.275441
11:50:22.309	0.289926
11:50:22.709	0.297859
11:50:23.009	0.256302
11:50:23.409	0.251381
11:50:23.709	0.258614
11:50:24.109	0.283764
11:50:24.409	0.260996
11:50:24.809	0.257028
11:50:25.108	0.264505
11:50:25.409	0.255961
11:50:25.809	0.267727
11:50:26.109	0.255308
11:50:26.409	0.271494
11:50:26.808	0.242493
11:50:27.109	0.222909
11:50:27.409	0.226154
11:50:27.809	0.241060
11:50:28.109	0.240649
11:50:28.509	0.232010
11:50:28.810	0.234154
11:50:29.209	0.214595
11:50:29.509	0.231833
11:50:29.909	0.220586
11:50:30.209	0.218810
11:50:30.609	0.218790
11:50:30.909	0.228320
11:50:31.309	0.201531
11:50:31.608	0.195592
11:50:32.009	0.209482
11:50:32.309	0.224028
11:50:32.609	0.216250
11:50:33.009	0.200572
11:50:33.309	0.202817
11:50:33.709	0.213385
11:50:34.009	0.197369
11:50:34.409	0.193537
11:50:34.708	0.210838
11:50:35.009	0.205554
11:50:35.409	0.193020
11:50:35.709	0.200539
11:50:36.109	0.218766
11:50:36.409	0.205557
11:50:36.808	0.193987
11:50:37.108	0.213721
11:50:37.509	0.214933
11:50:37.809	0.211717
11:50:38.208	0.225851
11:50:38.509	0.228792
11:50:38.909	0.200984
11:50:39.209	0.206042
11:50:39.508	0.181357
11:50:39.909	0.197777
11:50:40.209	0.196618
11:50:40.609	0.229765
11:50:40.909	0.234547
11:50:41.309	0.218177
11:50:41.609	0.177032
11:50:42.009	0.184396
11:50:42.309	0.186878
11:50:42.709	0.200459
11:50:43.009	0.193295
11:50:43.409	0.201607
11:50:43.709	0.212684
11:50:44.109	0.225398
11:50:44.409	0.229229
11:50:44.810	0.204037
11:50:45.109	0.213759
11:50:45.409	0.222438
11:50:45.809	0.211418
11:50:46.109	0.230075
11:50:46.409	0.223791
11:50:46.809	0.207516
11:50:47.109	0.180621
11:50:47.509	0.190385
11:50:47.809	0.181105
11:50:48.209	0.195481
11:50:48.509	0.206837
11:50:48.809	0.224565
11:50:49.209	0.216545
11:50:49.509	0.198504
11:50:49.909	0.196754
11:50:50.209	0.192230
11:50:50.509	0.199625
11:50:50.909	0.218329
11:50:51.209	0.210112
11:50:51.609	0.210140
11:50:51.909	0.199550
11:50:52.309	0.195779
11:50:52.609	0.192380
11:50:53.009	0.207332
11:50:53.309	0.207456
11:50:53.609	0.186171
11:50:54.009	0.193915
11:50:54.309	0.194810
11:50:54.709	0.204341
11:50:55.009	0.203995
11:50:55.409	0.197065
11:50:55.709	0.189940
11:50:56.109	0.159975
11:50:56.409	0.193909
11:50:56.809	0.190279
11:50:57.108	0.187532
11:50:57.509	0.186846
11:50:57.809	0.196750
11:50:58.209	0.183055
11:50:58.509	0.181622
11:50:58.909	0.180059
11:50:59.209	0.173659
11:50:59.509	0.184899
11:50:59.909	0.183285
11:51:00.209	0.171394
11:51:00.509	0.173096
11:51:00.909	0.198210
11:51:01.209	0.204327
11:51:01.609	0.211340
11:51:01.909	0.194047
11:51:02.309	0.209712
11:51:02.609	0.197770
11:51:02.909	0.194632
11:51:03.309	0.200243
11:51:03.609	0.192437
11:51:04.009	0.193263
11:51:04.309	0.193205
11:51:04.609	0.216529
11:51:05.009	0.218193
11:51:05.309	0.224148
11:51:05.709	0.200896
11:51:06.009	0.199845
11:51:06.409	0.199375
11:51:06.709	0.214082
11:51:07.109	0.189284
11:51:07.409	0.184905
11:51:07.709	0.188076
11:51:08.110	0.207234
11:51:08.409	0.219077
11:51:08.809	0.219345
11:51:09.109	0.209259
11:51:09.509	0.209320
11:51:09.809	0.201941
11:51:10.209	0.225493
11:51:10.509	0.221610
11:51:10.909	0.222180
11:51:11.209	0.213743
11:51:11.610	0.200826
11:51:11.909	0.200181
11:51:12.309	0.196099
11:51:12.609	0.215275
11:51:13.009	0.217936
11:51:13.309	0.211711
11:51:13.609	0.218193
11:51:14.009	0.219983
11:51:14.309	0.222100
11:51:14.709	0.196523
11:51:15.009	0.227326
11:51:15.409	0.216297
11:51:15.709	0.208378
11:51:16.109	0.213676
11:51:16.409	0.227165
11:51:16.809	0.210201
11:51:17.109	0.208815
11:51:17.509	0.202838
11:51:17.809	0.199153
11:51:18.209	0.206482
11:51:18.509	0.204083
11:51:18.809	0.208209
11:51:19.209	0.189320
11:51:19.509	0.219206
11:51:19.909	0.185717
11:51:20.209	0.184412
11:51:20.609	0.185621
11:51:20.909	0.211746
11:51:21.309	0.197756
11:51:21.609	0.214697
11:51:22.009	0.200880
11:51:22.310	0.204871
11:51:22.709	0.222928
11:51:23.009	0.210563
11:51:23.409	0.214691
11:51:23.709	0.211152
11:51:24.009	0.199780
11:51:24.409	0.194820
11:51:24.709	0.207418
11:51:25.009	0.206229
11:51:25.409	0.209391
11:51:25.710	0.190790
11:51:26.109	0.186452
11:51:26.409	0.190693
11:51:26.809	0.171566
11:51:27.109	0.157281
11:51:27.509	0.178360
11:51:27.809	0.159083
11:51:28.209	0.200359
11:51:28.509	0.164413
11:51:28.909	0.199514
11:51:29.209	0.209339
11:51:29.610	0.171341
11:51:29.909	0.177256
11:51:30.309	0.165656
11:51:30.609	0.161624
11:51:31.009	0.141980
11:51:31.309	0.171947
11:51:31.709	0.189150
11:51:32.009	0.211314
11:51:32.409	0.190070
11:51:32.709	0.220576
11:51:33.009	0.195206
11:51:33.409	0.183179
11:51:33.709	0.183420
11:51:34.109	0.194442
11:51:34.409	0.177774
11:51:34.810	0.154878
11:51:35.109	0.182342
11:51:35.509	0.187194
11:51:35.809	0.165598
11:51:36.209	0.142135
11:51:36.509	0.169019
11:51:36.809	0.172165
11:51:37.209	0.187321
11:51:37.509	0.162500
11:51:37.809	0.157559
11:51:38.209	0.178976
11:51:38.509	0.166516
11:51:38.810	0.167329
11:51:39.209	0.156256
11:51:39.510	0.174768
11:51:39.810	0.166467
11:51:40.209	0.158388
11:51:40.509	0.161679
11:51:40.909	0.164189
11:51:41.309	0.171503
11:51:41.609	0.187341
11:51:41.910	0.188852
11:51:42.309	0.184499
11:51:42.609	0.170191
11:51:43.009	0.168701
11:51:43.309	0.155619
11:51:43.609	0.156266
11:51:44.009	0.237098
11:51:44.309	0.235441
11:51:44.709	0.152286
11:51:45.009	0.167194
11:51:45.409	0.170325
11:51:45.709	0.173901
11:51:46.009	0.175027
11:51:46.410	0.210823
11:51:46.709	0.185035
11:51:47.009	0.185858
11:51:47.409	0.166561
11:51:47.709	0.163113
11:51:48.109	0.178723
11:51:48.409	0.177225
11:51:48.809	0.176774
11:51:49.109	0.172047
11:51:49.510	0.153097
11:51:49.809	0.156277
11:51:50.209	0.199700
11:51:50.510	0.180572
11:51:50.810	0.170241
11:51:51.210	0.167960
11:51:51.509	0.204160
11:51:51.809	0.215365
11:51:52.209	0.225391
11:51:52.510	0.228352
11:51:52.809	0.245402
11:51:53.209	0.242895
11:51:53.509	0.243248
11:51:53.910	0.248967
11:51:54.209	0.237668
11:51:54.610	0.264758
11:51:54.909	0.280204
11:51:55.310	0.247582
11:51:55.609	0.256454
11:51:55.910	0.267569
11:51:56.309	0.277229
11:51:56.609	0.273032
11:51:56.909	0.294981
11:51:57.309	0.284603
11:51:57.609	0.302486
11:51:57.910	0.296550
11:51:58.309	0.329502
11:51:58.609	0.312121
11:51:58.909	0.300731
11:51:59.309	0.311702
11:51:59.610	0.314763
11:51:59.909	0.295938
11:52:00.310	0.314429
11:52:00.609	0.323487
11:52:00.909	0.332005
11:52:01.309	0.318128
11:52:01.610	0.331652
11:52:02.009	0.330451
11:52:02.309	0.352985
11:52:02.709	0.342942
11:52:03.009	0.346307
11:52:03.410	0.350622
11:52:03.709	0.318707
11:52:04.109	0.336542
11:52:04.409	0.336470
11:52:04.810	0.324340
11:52:05.110	0.352021
11:52:05.509	0.347372
11:52:05.810	0.348297
11:52:06.110	0.317958
11:52:06.509	0.366115
11:52:06.810	0.354885
11:52:07.109	0.333272
11:52:07.509	0.312439
11:52:07.809	0.339696
11:52:08.109	0.322380
11:52:08.509	0.341392
11:52:08.809	0.311343
11:52:09.209	0.327791
11:52:09.509	0.322118
11:52:09.909	0.329567
11:52:10.209	0.339886
11:52:10.609	0.305105
11:52:10.909	0.287852
11:52:11.310	0.282292
11:52:11.610	0.259549
11:52:12.009	0.253417
11:52:12.409	0.246377
11:52:12.709	0.219334
11:52:13.009	0.239289
11:52:13.410	0.245388
11:52:13.709	0.238307
11:52:14.009	0.237989
11:52:14.409	0.217323
11:52:14.710	0.220927
11:52:15.009	0.237087
11:52:15.409	0.244750
11:52:15.710	0.230639
11:52:16.110	0.227058
11:52:16.410	0.236876
11:52:16.810	0.224213
11:52:17.110	0.202822
11:52:17.509	0.209842
11:52:17.810	0.211957
11:52:18.210	0.193497
11:52:18.509	0.209081
11:52:18.909	0.196081
11:52:19.209	0.183279
11:52:19.609	0.210439
11:52:19.909	0.211633
11:52:20.209	0.223171
11:52:20.609	0.212069
11:52:20.910	0.197307
11:52:21.210	0.185379
11:52:21.610	0.175487
11:52:21.909	0.182464
11:52:22.209	0.197873
11:52:22.610	0.189499
11:52:22.910	0.189429
11:52:23.310	0.197742
11:52:23.610	0.177145
11:52:24.010	0.178498
11:52:24.309	0.162073
11:52:24.709	0.175176
11:52:25.009	0.180410
11:52:25.409	0.185735
11:52:25.709	0.172784
11:52:26.009	0.158132
11:52:26.409	0.200050
11:52:26.709	0.184329
11:52:27.109	0.191829
11:52:27.409	0.197183
11:52:27.809	0.186293
11:52:28.109	0.187940
11:52:28.410	0.147720
11:52:28.809	0.189843
11:52:29.109	0.198888
11:52:29.410	0.172804
11:52:29.809	0.167370
11:52:30.110	0.162407
11:52:30.510	0.165943
11:52:30.810	0.171233
11:52:31.209	0.164225
11:52:31.509	0.162376
11:52:31.910	0.169890
11:52:32.210	0.162324
11:52:32.609	0.146774
11:52:32.910	0.163334
11:52:33.209	0.175472
11:52:33.609	0.175155
11:52:33.910	0.162888
11:52:34.209	0.160986
11:52:34.609	0.149554
11:52:34.910	0.179269
11:52:35.209	0.186174
11:52:35.609	0.182003
11:52:35.910	0.189933
11:52:36.309	0.169339
11:52:36.610	0.166491
11:52:37.009	0.172938
11:52:37.309	0.167063
11:52:37.710	0.182193
11:52:38.010	0.182021
11:52:38.310	0.172299
11:52:38.709	0.175019
11:52:39.010	0.178457
11:52:39.410	0.161549
11:52:39.710	0.156118
11:52:40.109	0.177599
11:52:40.410	0.173610
11:52:40.809	0.163838
11:52:41.109	0.165553
11:52:41.409	0.176775
11:52:41.810	0.168655
11:52:42.109	0.167430
11:52:42.410	0.160984
11:52:42.810	0.163112
11:52:43.110	0.168103
11:52:43.410	0.170042
11:52:43.810	0.158864
11:52:44.110	0.172445
11:52:44.510	0.169688
11:52:44.810	0.160676
11:52:45.210	0.174041
11:52:45.509	0.179446
11:52:45.809	0.164748
11:52:46.209	0.169231
11:52:46.509	0.162361
11:52:46.909	0.165932
11:52:47.209	0.159451
11:52:47.510	0.160016
11:52:47.909	0.171069
11:52:48.210	0.178310
11:52:48.509	0.177454
11:52:48.909	0.154626
11:52:49.210	0.163160
11:52:49.510	0.200430
11:52:49.910	0.162274
11:52:50.210	0.163858
11:52:50.510	0.168917
11:52:50.910	0.182076
11:52:51.210	0.175600
11:52:51.609	0.160748
11:52:51.910	0.152848
11:52:52.210	0.150250
11:52:52.610	0.167726
11:52:52.910	0.155148
11:52:53.210	0.166902
11:52:53.610	0.168020
11:52:53.910	0.176707
11:52:54.210	0.162357
11:52:54.609	0.153206
11:52:54.909	0.182514
11:52:55.310	0.164662
11:52:55.610	0.162391
11:52:56.010	0.156690
11:52:56.309	0.158905
11:52:56.710	0.165551
11:52:57.010	0.152479
11:52:57.309	0.148822
11:52:57.710	0.161835
11:52:58.010	0.167877
11:52:58.409	0.151743
11:52:58.710	0.163198
11:52:59.110	0.178328
11:52:59.410	0.166600
11:52:59.810	0.170115
11:53:00.110	0.172249
11:53:00.510	0.181323
11:53:00.809	0.169123
11:53:01.210	0.173872
11:53:01.510	0.168963
11:53:01.910	0.178408
11:53:02.210	0.151385
11:53:02.610	0.165049
11:53:02.910	0.170284
11:53:03.210	0.169594
11:53:03.610	0.176537
11:53:03.910	0.167370
11:53:04.309	0.164245
11:53:04.610	0.158528
11:53:05.010	0.159454
11:53:05.310	0.163119
11:53:05.710	0.158098
11:53:06.010	0.149350
11:53:06.409	0.149905
11:53:06.711	0.141997
11:53:07.110	0.147791
11:53:07.410	0.153293
11:53:07.810	0.159369
11:53:08.110	0.168331
11:53:08.410	0.174519
11:53:08.809	0.164032
11:53:09.110	0.163797
11:53:09.410	0.161408
11:53:09.810	0.153746
11:53:10.109	0.164583
11:53:10.410	0.159116
11:53:10.810	0.155203
11:53:11.110	0.155876
11:53:11.509	0.150476
11:53:11.810	0.164946
11:53:12.110	0.161163
11:53:12.510	0.166015
11:53:12.910	0.169092
11:53:13.210	0.167552
11:53:13.510	0.170637
11:53:13.910	0.175548
11:53:14.210	0.170577
11:53:14.610	0.155939
11:53:14.910	0.156811
11:53:15.310	0.166310
11:53:15.610	0.167638
11:53:16.010	0.161093
11:53:16.310	0.155947
11:53:16.609	0.150765
11:53:17.010	0.159234
11:53:17.310	0.170224
11:53:17.710	0.157599
11:53:18.010	0.157500
11:53:18.410	0.160143
11:53:18.710	0.164743
11:53:19.110	0.162170
11:53:19.410	0.166656
11:53:19.810	0.170265
11:53:20.110	0.150238
11:53:20.510	0.175137
11:53:20.810	0.178038
11:53:21.210	0.171532
11:53:21.510	0.156892
11:53:21.910	0.163010
11:53:22.209	0.158768
11:53:22.510	0.166211
11:53:22.910	0.164816
11:53:23.210	0.168844
11:53:23.610	0.170152
11:53:23.909	0.161664
11:53:24.310	0.164316
11:53:24.610	0.159595
11:53:24.910	0.164874
11:53:25.310	0.145438
11:53:25.610	0.167004
11:53:26.010	0.163255
11:53:26.310	0.174473
11:53:26.710	0.174948
11:53:27.010	0.175794
11:53:27.409	0.179350
11:53:27.710	0.179269
11:53:28.110	0.192086
11:53:28.410	0.188769
11:53:28.710	0.196681
11:53:29.110	0.182606
11:53:29.410	0.184959
11:53:29.809	0.187153
11:53:30.110	0.178571
11:53:30.510	0.182848
11:53:30.810	0.173992
11:53:31.210	0.183568
11:53:31.510	0.198483
11:53:31.910	0.183703
11:53:32.210	0.193985
11:53:32.610	0.198300
11:53:32.909	0.186907
11:53:33.310	0.184025
11:53:33.610	0.181476
11:53:34.010	0.185006
11:53:34.310	0.202757
11:53:34.710	0.196001
11:53:35.009	0.199447
11:53:35.410	0.194927
11:53:35.710	0.199537
11:53:36.110	0.186859
11:53:36.410	0.191325
11:53:36.810	0.204744
11:53:37.110	0.188698
11:53:37.510	0.184903
11:53:37.810	0.191176
11:53:38.210	0.201250
11:53:38.509	0.185764
11:53:38.810	0.188461
11:53:39.210	0.214403
11:53:39.510	0.204405
11:53:39.810	0.201905
11:53:40.210	0.201661
11:53:40.510	0.195149
11:53:40.810	0.189596
11:53:41.210	0.199968
11:53:41.510	0.200682
11:53:41.910	0.191335
11:53:42.210	0.184548
11:53:42.610	0.177387
11:53:42.910	0.177850
11:53:43.310	0.195592
11:53:43.610	0.186207
11:53:43.910	0.187593
11:53:44.310	0.203026
11:53:44.610	0.171182
11:53:45.010	0.179327
11:53:45.309	0.190943
11:53:45.610	0.189083
11:53:46.010	0.170588
11:53:46.310	0.167109
11:53:46.710	0.192941
11:53:47.010	0.169375
11:53:47.409	0.158413
11:53:47.710	0.160386
11:53:48.110	0.181651
11:53:48.410	0.183341
11:53:48.810	0.186393
11:53:49.110	0.175151
11:53:49.510	0.163574
11:53:49.810	0.173538
11:53:50.210	0.172944
11:53:50.510	0.178310
11:53:50.810	0.177582
11:53:51.210	0.160026
11:53:51.510	0.166534
11:53:51.910	0.176656
11:53:52.210	0.185091
11:53:52.610	0.188610
11:53:52.910	0.175715
11:53:53.310	0.173254
11:53:53.610	0.176034
11:53:54.010	0.151107
11:53:54.310	0.155233
11:53:54.610	0.165392
11:53:55.010	0.159814
11:53:55.309	0.173616
11:53:55.710	0.135684
11:53:56.010	0.133836
11:53:56.410	0.149469
11:53:56.710	0.171065
11:53:57.010	0.177388
11:53:57.410	0.180064
11:53:57.710	0.171203
11:53:58.010	0.192557
11:53:58.410	0.184398
11:53:58.710	0.172736
11:53:59.110	0.172484
11:53:59.410	0.158494
11:53:59.710	0.171578
11:54:00.110	0.169674
11:54:00.410	0.142672
11:54:00.810	0.156806
11:54:01.110	0.163982
11:54:01.510	0.161385
11:54:01.810	0.151475
11:54:02.210	0.157455
11:54:02.510	0.154368
11:54:02.910	0.172093
11:54:03.210	0.165763
11:54:03.610	0.163379
11:54:03.910	0.165474
11:54:04.210	0.148059
11:54:04.610	0.141842
11:54:04.910	0.151401
11:54:05.310	0.160446
11:54:05.610	0.156225
11:54:06.011	0.142765
11:54:06.310	0.159569
11:54:06.710	0.139051
11:54:07.010	0.138771
11:54:07.410	0.143407
11:54:07.710	0.142352
11:54:08.110	0.137349
11:54:08.410	0.144678
11:54:08.710	0.145661
11:54:09.110	0.147803
11:54:09.410	0.152854
11:54:09.810	0.154516
11:54:10.110	0.145075
11:54:10.510	0.140624
11:54:10.810	0.156736
11:54:11.210	0.160335
11:54:11.510	0.163553
11:54:11.910	0.151485
11:54:12.210	0.161569
11:54:12.610	0.157130
11:54:13.011	0.155377
11:54:13.310	0.147261
11:54:13.710	0.131483
11:54:14.010	0.140772
11:54:14.410	0.159520
11:54:14.710	0.144772
11:54:15.110	0.143991
11:54:15.410	0.147718
11:54:15.810	0.145375
11:54:16.110	0.161308
11:54:16.510	0.139178
11:54:16.810	0.137270
11:54:17.210	0.147598
11:54:17.510	0.136634
11:54:17.810	0.130939
11:54:18.210	0.145145
11:54:18.510	0.131641
11:54:18.910	0.140781
11:54:19.210	0.147556
11:54:19.610	0.134036
11:54:19.910	0.135744
11:54:20.310	0.132876
11:54:20.610	0.134906
11:54:21.010	0.129305
11:54:21.310	0.145708
11:54:21.710	0.152024
11:54:22.010	0.156190
11:54:22.410	0.159670
11:54:22.710	0.160887
11:54:23.010	0.133841
11:54:23.410	0.129729
11:54:23.710	0.136036
11:54:24.110	0.136740
11:54:24.410	0.142367
11:54:24.810	0.135057
11:54:25.110	0.136993
11:54:25.510	0.139343
11:54:25.810	0.148545
11:54:26.210	0.143043
11:54:26.510	0.135677
11:54:26.810	0.129067
11:54:27.210	0.142328
11:54:27.510	0.152033
11:54:27.910	0.145025
11:54:28.210	0.157895
11:54:28.510	0.167047
11:54:28.911	0.131532
11:54:29.210	0.149544
11:54:29.610	0.146642
11:54:29.910	0.155541
11:54:30.210	0.142883
11:54:30.610	0.144980
11:54:30.910	0.143739
11:54:31.310	0.138967
11:54:31.610	0.140575
11:54:32.010	0.135145
11:54:32.310	0.142551
11:54:32.710	0.134622
11:54:33.011	0.114724
11:54:33.410	0.122269
11:54:33.710	0.125949
11:54:34.010	0.151749
11:54:34.410	0.163982
11:54:34.711	0.146247
11:54:35.010	0.133796
11:54:35.410	0.171184
11:54:35.710	0.145886
11:54:36.110	0.160319
11:54:36.411	0.152676
11:54:36.811	0.151180
11:54:37.110	0.162939
11:54:37.510	0.129058
11:54:37.810	0.130515
11:54:38.210	0.127512
11:54:38.510	0.134395
11:54:38.910	0.145894
11:54:39.210	0.148816
11:54:39.610	0.145111
11:54:39.911	0.160642
11:54:40.310	0.133108
11:54:40.610	0.144253
11:54:41.010	0.132943
11:54:41.310	0.131529
11:54:41.710	0.154283
11:54:42.011	0.149388
11:54:42.410	0.122618
11:54:42.710	0.131201
11:54:43.011	0.134781
11:54:43.410	0.137821
11:54:43.711	0.160184
11:54:44.110	0.117929
11:54:44.510	0.130539
11:54:44.810	0.146989
11:54:45.111	0.151786
11:54:45.510	0.134968
11:54:45.810	0.127554
11:54:46.211	0.135658
11:54:46.510	0.124642
11:54:46.910	0.136376
11:54:47.210	0.121594
11:54:47.610	0.143905
11:54:47.910	0.162528
11:54:48.210	0.123136
11:54:48.610	0.121309
11:54:48.910	0.149182
11:54:49.310	0.147723
11:54:49.610	0.130823
11:54:50.010	0.145830
11:54:50.310	0.133260
11:54:50.610	0.129191
11:54:51.010	0.118896
11:54:51.310	0.136094
11:54:51.711	0.139707
11:54:52.010	0.135843
11:54:52.410	0.139538
11:54:52.710	0.145253
11:54:53.110	0.135271
11:54:53.411	0.139240
11:54:53.810	0.129283
11:54:54.111	0.136255
11:54:54.510	0.136746
11:54:54.810	0.129350
11:54:55.110	0.120587
11:54:55.510	0.137871
11:54:55.810	0.139104
11:54:56.210	0.122083
11:54:56.510	0.138317
11:54:56.811	0.133779
11:54:57.210	0.130217
11:54:57.510	0.123572
11:54:57.910	0.130036
11:54:58.210	0.137053
11:54:58.610	0.138163
11:54:58.910	0.139821
11:54:59.211	0.154440
11:54:59.610	0.131844
11:54:59.911	0.142017
11:55:00.310	0.150088
11:55:00.610	0.130007
11:55:01.010	0.136492
11:55:01.310	0.139353
11:55:01.711	0.117000
11:55:02.010	0.127618
11:55:02.310	0.113346
11:55:02.711	0.118939
11:55:03.010	0.129198
11:55:03.410	0.130672
11:55:03.710	0.135503
11:55:04.110	0.154558
11:55:04.410	0.130335
11:55:04.810	0.135629
11:55:05.110	0.135510
11:55:05.510	0.124586
11:55:05.810	0.129029
11:55:06.110	0.132069
11:55:06.510	0.136901
11:55:06.810	0.133599
11:55:07.211	0.144372
11:55:07.510	0.163256
11:55:07.910	0.136886
11:55:08.210	0.128905
11:55:08.610	0.135954
11:55:08.911	0.143274
11:55:09.211	0.144309
11:55:09.610	0.141932
11:55:09.911	0.122624
11:55:10.310	0.149408
11:55:10.610	0.137071
11:55:11.010	0.140603
11:55:11.310	0.133978
11:55:11.710	0.131341
11:55:12.010	0.132888
11:55:12.410	0.129714
11:55:12.710	0.128543
11:55:13.110	0.124908
11:55:13.410	0.108199
11:55:13.811	0.121274
11:55:14.110	0.149208
11:55:14.510	0.118992
11:55:14.810	0.138875
11:55:15.210	0.120601
11:55:15.511	0.109186
11:55:15.910	0.137253
11:55:16.211	0.126452
11:55:16.511	0.136937
11:55:16.910	0.156855
11:55:17.211	0.132446
11:55:17.610	0.160704
11:55:17.910	0.138627
11:55:18.210	0.123496
11:55:18.610	0.133285
11:55:18.910	0.128602
11:55:19.211	0.116198
11:55:19.610	0.162233
11:55:19.911	0.156412
11:55:20.211	0.139428
11:55:20.610	0.119851
11:55:20.910	0.114447
11:55:21.311	0.119782
11:55:21.611	0.140437
11:55:22.010	0.124518
11:55:22.311	0.133711
11:55:22.611	0.123072
11:55:23.010	0.133110
11:55:23.310	0.132127
11:55:23.711	0.147694
11:55:24.011	0.141419
11:55:24.410	0.122265
11:55:24.711	0.119451
11:55:25.110	0.137650
11:55:25.411	0.144823
11:55:25.810	0.104012
11:55:26.110	0.110996
11:55:26.510	0.139321
11:55:26.810	0.137033
11:55:27.211	0.152671
11:55:27.510	0.144310
11:55:27.911	0.127400
11:55:28.210	0.108773
11:55:28.611	0.126365
11:55:28.910	0.137586
11:55:29.310	0.132374
11:55:29.610	0.130018
11:55:30.010	0.145175
11:55:30.310	0.140971
11:55:30.710	0.130743
11:55:31.011	0.122222
11:55:31.310	0.124364
11:55:31.711	0.123099
11:55:32.011	0.158379
11:55:32.410	0.140597
11:55:32.710	0.139587
11:55:33.110	0.138328
11:55:33.410	0.135960
11:55:33.811	0.121639
11:55:34.111	0.128179
11:55:34.410	0.117299
11:55:34.811	0.123326
11:55:35.111	0.148895
11:55:35.511	0.138932
11:55:35.811	0.119958
11:55:36.210	0.119793
11:55:36.511	0.112459
11:55:36.911	0.127061
11:55:37.210	0.146157
11:55:37.610	0.128758
11:55:37.910	0.115249
11:55:38.310	0.110632
11:55:38.611	0.112444
11:55:39.010	0.131706
11:55:39.311	0.118218
11:55:39.610	0.130968
11:55:40.011	0.138801
11:55:40.310	0.132747
11:55:40.710	0.104805
11:55:41.011	0.118788
11:55:41.411	0.114830
11:55:41.711	0.130223
11:55:42.111	0.124057
11:55:42.410	0.115488
11:55:42.811	0.114337
11:55:43.111	0.117614
11:55:43.411	0.124443
11:55:43.811	0.122709
11:55:44.111	0.095607
11:55:44.511	0.108741
11:55:44.810	0.122691
11:55:45.211	0.136754
11:55:45.511	0.133853
11:55:45.911	0.122762
11:55:46.210	0.139186
11:55:46.511	0.125736
11:55:46.911	0.112846
11:55:47.210	0.127261
11:55:47.511	0.130867
11:55:47.911	0.125839
11:55:48.211	0.106247
11:55:48.511	0.118093
11:55:48.911	0.124819
11:55:49.210	0.115345
11:55:49.611	0.107840
11:55:50.011	0.124484
11:55:50.311	0.111180
11:55:50.711	0.117393
11:55:51.011	0.100334
11:55:51.411	0.120790
11:55:51.711	0.121479
11:55:52.111	0.111549
11:55:52.411	0.120905
11:55:52.711	0.108195
11:55:53.111	0.107685
11:55:53.411	0.142202
11:55:53.811	0.117394
11:55:54.111	0.115220
11:55:54.411	0.122804
11:55:54.811	0.107421
11:55:55.111	0.120408
11:55:55.511	0.116749
11:55:55.810	0.113575
11:55:56.211	0.114727
11:55:56.510	0.115282
11:55:56.911	0.127962
11:55:57.211	0.123909
11:55:57.510	0.113507
11:55:57.911	0.121538
11:55:58.211	0.125883
11:55:58.511	0.111428
11:55:58.911	0.112386
11:55:59.211	0.128665
11:55:59.510	0.108944
11:55:59.911	0.112680
11:56:00.211	0.119104
11:56:00.611	0.123135
11:56:00.911	0.131468
11:56:01.311	0.107077
11:56:01.611	0.113226
11:56:01.911	0.118301
11:56:02.311	0.142063
11:56:02.611	0.149771
11:56:03.011	0.122930
11:56:03.311	0.128492
11:56:03.711	0.135256
11:56:04.011	0.111908
11:56:04.411	0.109791
11:56:04.711	0.113852
11:56:05.111	0.120159
11:56:05.411	0.126931
11:56:05.811	0.121998
11:56:06.111	0.122235
11:56:06.511	0.116452
11:56:06.811	0.118614
11:56:07.211	0.115083
11:56:07.511	0.092207
11:56:07.811	0.111090
11:56:08.211	0.132296
11:56:08.511	0.130329
11:56:08.811	0.118456
11:56:09.211	0.093540
11:56:09.511	0.114129
11:56:09.911	0.111917
11:56:10.211	0.125664
11:56:10.611	0.125692
11:56:10.911	0.131333
11:56:11.311	0.122304
11:56:11.611	0.128949
11:56:11.911	0.119536
11:56:12.310	0.107227
11:56:12.611	0.101537
11:56:13.011	0.105325
11:56:13.411	0.125846
11:56:13.711	0.117916
11:56:14.111	0.108696
11:56:14.411	0.110653
11:56:14.811	0.112033
11:56:15.111	0.118719
11:56:15.411	0.124707
11:56:15.811	0.122411
11:56:16.111	0.121788
11:56:16.512	0.113904
11:56:16.811	0.127770
11:56:17.211	0.117696
11:56:17.511	0.119737
11:56:17.911	0.103458
11:56:18.211	0.091769
11:56:18.611	0.102369
11:56:18.911	0.128903
11:56:19.311	0.129782
11:56:19.611	0.153734
11:56:20.011	0.131743
11:56:20.310	0.127074
11:56:20.611	0.109865
11:56:21.011	0.111776
11:56:21.311	0.110200
11:56:21.711	0.115348
11:56:22.011	0.122668
11:56:22.411	0.126226
11:56:22.711	0.127390
11:56:23.111	0.122343
11:56:23.411	0.105528
11:56:23.811	0.094096
11:56:24.111	0.102390
11:56:24.511	0.115756
11:56:24.811	0.119972
11:56:25.211	0.113152
11:56:25.511	0.101037
11:56:25.911	0.125961
11:56:26.211	0.125317
11:56:26.611	0.122174
11:56:26.911	0.123608
11:56:27.310	0.109285
11:56:27.611	0.097182
11:56:28.011	0.089830
11:56:28.311	0.093892
11:56:28.711	0.113840
11:56:29.012	0.101105
11:56:29.411	0.120271
11:56:29.711	0.116201
11:56:30.011	0.123711
11:56:30.410	0.114221
11:56:30.711	0.115942
11:56:31.111	0.113373
11:56:31.411	0.114859
11:56:31.711	0.103772
11:56:32.111	0.114284
11:56:32.410	0.115827
11:56:32.811	0.121703
11:56:33.111	0.124431
11:56:33.511	0.111915
11:56:33.811	0.109266
11:56:34.211	0.113458
11:56:34.511	0.114793
11:56:34.811	0.111379
11:56:35.211	0.119285
11:56:35.511	0.105937
11:56:35.911	0.115498
11:56:36.211	0.102093
11:56:36.610	0.094899
11:56:36.911	0.094872
11:56:37.311	0.088743
11:56:37.611	0.098228
11:56:38.010	0.131532
11:56:38.311	0.125690
11:56:38.711	0.132008
11:56:39.011	0.118718
11:56:39.411	0.109133
11:56:39.710	0.118462
11:56:40.110	0.124433
11:56:40.411	0.123658
11:56:40.811	0.128981
11:56:41.111	0.110081
11:56:41.511	0.128266
11:56:41.811	0.124025
11:56:42.211	0.112887
11:56:42.511	0.098345
11:56:42.910	0.110960
11:56:43.211	0.118685
11:56:43.611	0.129459
11:56:43.911	0.121405
11:56:44.311	0.094302
11:56:44.611	0.103926
11:56:45.011	0.107634
11:56:45.311	0.125926
11:56:45.711	0.118847
11:56:46.011	0.120490
11:56:46.411	0.113535
11:56:46.711	0.111813
11:56:47.111	0.127129
11:56:47.411	0.134203
11:56:47.811	0.127304
11:56:48.110	0.137525
11:56:48.511	0.104838
11:56:48.811	0.116883
11:56:49.211	0.110792
11:56:49.511	0.102539
11:56:49.811	0.120332
11:56:50.211	0.108429
11:56:50.511	0.109755
11:56:50.811	0.114207
11:56:51.210	0.099171
11:56:51.511	0.110865
11:56:51.811	0.100066
11:56:52.211	0.114271
11:56:52.511	0.107544
11:56:52.810	0.112201
11:56:53.211	0.120516
11:56:53.510	0.111495
11:56:53.911	0.108888
11:56:54.211	0.105616
11:56:54.611	0.123566
11:56:54.911	0.113753
11:56:55.311	0.105384
11:56:55.611	0.118086
11:56:56.011	0.121043
11:56:56.312	0.128538
11:56:56.711	0.103930
11:56:57.011	0.093865
11:56:57.412	0.108383
11:56:57.711	0.112585
11:56:58.110	0.110672
11:56:58.411	0.106372
11:56:58.811	0.106918
11:56:59.111	0.118067
11:56:59.511	0.111881
11:56:59.811	0.108003
11:57:00.211	0.122791
11:57:00.511	0.130031
11:57:00.911	0.111339
11:57:01.211	0.107147
11:57:01.611	0.109527
11:57:01.911	0.119821
11:57:02.211	0.116506
11:57:02.611	0.118402
11:57:02.911	0.112939
11:57:03.311	0.102914
11:57:03.611	0.096841
11:57:04.011	0.095397
11:57:04.311	0.101557
11:57:04.711	0.116186
11:57:05.011	0.114148
11:57:05.411	0.102974
11:57:05.711	0.106465
11:57:06.011	0.100275
11:57:06.411	0.107067
11:57:06.711	0.108727
11:57:07.011	0.112900
11:57:07.411	0.109290
11:57:07.710	0.122407
11:57:08.111	0.121281
11:57:08.512	0.107409
11:57:08.811	0.117672
11:57:09.211	0.110511
11:57:09.511	0.107779
11:57:09.911	0.092443
11:57:10.211	0.103193
11:57:10.611	0.100377
11:57:10.911	0.109991
11:57:11.311	0.103978
11:57:11.611	0.098003
11:57:12.011	0.113614
11:57:12.311	0.115264
11:57:12.711	0.098925
11:57:13.011	0.075297
11:57:13.411	0.117441
11:57:13.711	0.099285
11:57:14.111	0.111637
11:57:14.411	0.125089
11:57:14.811	0.107565
11:57:15.111	0.106890
11:57:15.511	0.110480
11:57:15.811	0.102015
11:57:16.211	0.087290
11:57:16.511	0.115966
11:57:16.911	0.112696
11:57:17.211	0.111308
11:57:17.611	0.100046
11:57:17.911	0.111132
11:57:18.211	0.100732
11:57:18.611	0.122259
11:57:18.911	0.093467
11:57:19.311	0.117712
11:57:19.611	0.121272
11:57:20.011	0.113472
11:57:20.311	0.124155
11:57:20.611	0.102564
11:57:21.011	0.089889
11:57:21.311	0.105211
11:57:21.711	0.111358
11:57:22.011	0.109403
11:57:22.311	0.105802
11:57:22.711	0.121128
11:57:23.011	0.101115
11:57:23.411	0.105958
11:57:23.711	0.098806
11:57:24.011	0.106382
11:57:24.411	0.112210
11:57:24.711	0.097478
11:57:25.111	0.098310
11:57:25.411	0.106568
11:57:25.811	0.109723
11:57:26.111	0.102504
11:57:26.511	0.103123
11:57:26.811	0.098900
11:57:27.111	0.110674
11:57:27.512	0.110614
11:57:27.812	0.089999
11:57:28.211	0.094677
11:57:28.511	0.101107
11:57:28.912	0.087960
11:57:29.211	0.076713
11:57:29.611	0.099390
11:57:29.911	0.104766
11:57:30.311	0.116460
11:57:30.611	0.121007
11:57:31.011	0.115832
11:57:31.311	0.117341
11:57:31.711	0.108479
11:57:32.011	0.116894
11:57:32.311	0.097432
11:57:32.711	0.117385
11:57:33.011	0.102748
11:57:33.412	0.094451
11:57:33.711	0.101310
11:57:34.011	0.111750
11:57:34.411	0.099138
11:57:34.711	0.135520
11:57:35.111	0.098906
11:57:35.411	0.099985
11:57:35.811	0.105556
11:57:36.111	0.094624
11:57:36.511	0.106558
11:57:36.811	0.113839
11:57:37.211	0.094635
11:57:37.511	0.097809
11:57:37.911	0.103992
11:57:38.211	0.105575
11:57:38.611	0.106329
11:57:38.911	0.110238
11:57:39.311	0.107027
11:57:39.611	0.108120
11:57:40.011	0.115214
11:57:40.311	0.112812
11:57:40.711	0.112112
11:57:41.011	0.108674
11:57:41.311	0.110705
11:57:41.711	0.106141
11:57:42.011	0.112358
11:57:42.411	0.097285
11:57:42.711	0.113782
11:57:43.112	0.106215
11:57:43.412	0.104239
11:57:43.811	0.097201
11:57:44.111	0.095788
11:57:44.511	0.112564
11:57:44.811	0.119828
11:57:45.111	0.115367
11:57:45.511	0.126715
11:57:45.811	0.126382
11:57:46.211	0.105812
11:57:46.511	0.101942
11:57:46.912	0.113774
11:57:47.211	0.102357
11:57:47.611	0.101031
11:57:47.911	0.111306
11:57:48.311	0.111164
11:57:48.611	0.106265
11:57:49.011	0.119695
11:57:49.312	0.123090
11:57:49.711	0.127391
11:57:50.011	0.117891
11:57:50.311	0.107450
11:57:50.711	0.097445
11:57:51.011	0.113112
11:57:51.411	0.110666
11:57:51.711	0.111605
11:57:52.111	0.099758
11:57:52.411	0.117543
11:57:52.812	0.112002
11:57:53.111	0.119416
11:57:53.512	0.124436
11:57:53.811	0.111731
11:57:54.211	0.090167
11:57:54.511	0.092174
11:57:54.912	0.103744
11:57:55.211	0.102421
11:57:55.512	0.106303
11:57:55.912	0.120005
11:57:56.211	0.111258
11:57:56.512	0.118478
11:57:56.911	0.103917
11:57:57.211	0.117085
11:57:57.511	0.109092
11:57:57.912	0.107168
11:57:58.211	0.121001
11:57:58.611	0.106093
11:57:58.911	0.102921
11:57:59.311	0.099493
11:57:59.611	0.099021
11:57:59.911	0.113439
11:58:00.311	0.099859
11:58:00.611	0.094867
11:58:01.012	0.096707
11:58:01.311	0.122428
11:58:01.711	0.090541
11:58:02.011	0.084674
11:58:02.311	0.089089
11:58:02.711	0.101547
11:58:03.011	0.097785
11:58:03.312	0.081077
11:58:03.711	0.087460
11:58:04.011	0.092324
11:58:04.311	0.107006
11:58:04.711	0.101596
11:58:05.011	0.099727
11:58:05.411	0.100048
11:58:05.711	0.082060
11:58:06.111	0.097498
11:58:06.411	0.094153
11:58:06.811	0.100882
11:58:07.111	0.092704
11:58:07.511	0.128701
11:58:07.811	0.104958
11:58:08.211	0.093387
11:58:08.511	0.084022
11:58:08.911	0.115468
11:58:09.211	0.120082
11:58:09.511	0.113836
11:58:09.911	0.086659
11:58:10.212	0.097156
11:58:10.611	0.092013
11:58:10.911	0.107588
11:58:11.311	0.089763
11:58:11.611	0.089354
11:58:12.011	0.096420
11:58:12.311	0.094102
11:58:12.712	0.092696
11:58:13.011	0.110355
11:58:13.311	0.086463
11:58:13.712	0.107157
11:58:14.011	0.085170
11:58:14.411	0.099935
11:58:14.711	0.097133
11:58:15.111	0.102484
11:58:15.412	0.107774
11:58:15.811	0.116248
11:58:16.112	0.092014
11:58:16.411	0.084608
11:58:16.811	0.095648
11:58:17.112	0.103809
11:58:17.412	0.107732
11:58:17.811	0.085961
11:58:18.111	0.090690
11:58:18.411	0.092090
11:58:18.811	0.104474
11:58:19.111	0.098499
11:58:19.511	0.103664
11:58:19.811	0.089623
11:58:20.211	0.088237
11:58:20.511	0.098073
11:58:20.911	0.095123
11:58:21.211	0.100152
11:58:21.611	0.103239
11:58:21.911	0.102970
11:58:22.312	0.109812
11:58:22.612	0.097732
11:58:23.011	0.083540
11:58:23.311	0.100714
11:58:23.612	0.100137
11:58:24.011	0.104608
11:58:24.311	0.100003
11:58:24.711	0.105763
11:58:25.012	0.093986
11:58:25.412	0.107417
11:58:25.711	0.107502
11:58:26.011	0.100971
11:58:26.411	0.102690
11:58:26.712	0.095279
11:58:27.112	0.096683
11:58:27.412	0.091731
11:58:27.711	0.087273
11:58:28.112	0.094186
11:58:28.412	0.098626
11:58:28.812	0.089945
11:58:29.111	0.086272
11:58:29.411	0.101156
11:58:29.812	0.099762
11:58:30.111	0.081958
11:58:30.411	0.093771
11:58:30.811	0.085011
11:58:31.112	0.090494
11:58:31.412	0.099796
11:58:31.812	0.097715
11:58:32.111	0.078778
11:58:32.511	0.097499
11:58:32.811	0.097891
11:58:33.211	0.078596
11:58:33.512	0.098313
11:58:33.911	0.100611
11:58:34.211	0.094757
11:58:34.612	0.087010
11:58:34.911	0.110214
11:58:35.311	0.113115
11:58:35.612	0.113047
11:58:36.011	0.105015
11:58:36.312	0.106120
11:58:36.712	0.099799
11:58:37.011	0.101487
11:58:37.411	0.127018
11:58:37.712	0.107540
11:58:38.111	0.093028
11:58:38.411	0.092275
11:58:38.711	0.095800
11:58:39.112	0.100959
11:58:39.411	0.105580
11:58:39.811	0.088687
11:58:40.111	0.081918
11:58:40.511	0.071783
11:58:40.811	0.121476
11:58:41.212	0.108220
11:58:41.512	0.104478
11:58:41.812	0.116481
11:58:42.212	0.097271
11:58:42.512	0.101208
11:58:42.912	0.074581
11:58:43.211	0.077438
11:58:43.611	0.084739
11:58:43.912	0.074982
11:58:44.311	0.086584
11:58:44.611	0.099672
11:58:45.011	0.101514
11:58:45.312	0.092909
11:58:45.611	0.087890
11:58:46.012	0.102785
11:58:46.311	0.096052
11:58:46.611	0.084148
11:58:47.011	0.101163
11:58:47.311	0.092962
11:58:47.711	0.106973
11:58:48.011	0.108088
11:58:48.411	0.098647
11:58:48.712	0.092506
11:58:49.112	0.095295
11:58:49.411	0.096874
11:58:49.812	0.101274
11:58:50.111	0.092025
11:58:50.512	0.095637
11:58:50.811	0.101511
11:58:51.212	0.099233
11:58:51.512	0.079247
11:58:51.811	0.078338
11:58:52.212	0.080519
11:58:52.512	0.108359
11:58:52.811	0.088879
11:58:53.211	0.083626
11:58:53.512	0.095372
11:58:53.911	0.081185
11:58:54.211	0.083956
11:58:54.611	0.090186
11:58:54.912	0.101701
11:58:55.311	0.088146
11:58:55.611	0.098225
11:58:55.912	0.099151
11:58:56.311	0.097378
11:58:56.611	0.085873
11:58:56.913	0.086026
11:58:57.312	0.090338
11:58:57.612	0.079229
11:58:58.011	0.089391
11:58:58.311	0.089693
11:58:58.712	0.106175
11:58:59.012	0.091841
11:58:59.411	0.087505
11:58:59.711	0.088517
11:59:00.111	0.104854
11:59:00.412	0.087409
11:59:00.811	0.106393
11:59:01.111	0.098235
11:59:01.511	0.114767
11:59:01.811	0.107633
11:59:02.212	0.114668
11:59:02.512	0.130487
11:59:02.911	0.119071
11:59:03.212	0.121447
11:59:03.512	0.094442
11:59:03.912	0.096337
11:59:04.212	0.101107
11:59:04.612	0.087693
11:59:04.912	0.083039
11:59:05.311	0.090491
11:59:05.611	0.088497
11:59:06.011	0.091870
11:59:06.412	0.087069
11:59:06.711	0.093768
11:59:07.012	0.090921
11:59:07.413	0.093538
11:59:07.712	0.087936
11:59:08.111	0.088320
11:59:08.411	0.091133
11:59:08.712	0.080883
11:59:09.111	0.084786
11:59:09.412	0.093332
11:59:09.812	0.086746
11:59:10.112	0.082516
11:59:10.511	0.094839
11:59:10.812	0.076222
11:59:11.212	0.082640
11:59:11.511	0.079568
11:59:11.912	0.070133
11:59:12.212	0.060946
11:59:12.611	0.071194
11:59:12.912	0.088682
11:59:13.312	0.084381
11:59:13.611	0.085622
11:59:14.012	0.078737
11:59:14.312	0.083662
11:59:14.712	0.071243
11:59:15.012	0.091990
11:59:15.412	0.085958
11:59:15.712	0.089152
11:59:16.112	0.087928
11:59:16.412	0.078043
11:59:16.812	0.098639
11:59:17.112	0.105288
11:59:17.512	0.063592
11:59:17.812	0.077519
11:59:18.212	0.088045
11:59:18.512	0.071324
11:59:18.912	0.076269
11:59:19.212	0.080240
11:59:19.612	0.092828
11:59:19.912	0.083024
11:59:20.312	0.088657
11:59:20.612	0.081800
11:59:20.912	0.076328
11:59:21.311	0.089595
11:59:21.612	0.091235
11:59:22.012	0.092592
11:59:22.312	0.070112
11:59:22.712	0.074395
11:59:23.012	0.079337
11:59:23.412	0.076939
11:59:23.712	0.072178
11:59:24.111	0.078783
11:59:24.411	0.071479
11:59:24.811	0.067941
11:59:25.112	0.074692
11:59:25.512	0.082912
11:59:25.812	0.081359
11:59:26.112	0.100503
11:59:26.512	0.088071
11:59:26.812	0.086875
11:59:27.212	0.088990
11:59:27.512	0.084396
11:59:27.812	0.096326
11:59:28.212	0.084335
11:59:28.512	0.074828
11:59:28.911	0.075601
11:59:29.212	0.082598
11:59:29.612	0.102878
11:59:29.912	0.092265
11:59:30.312	0.080780
11:59:30.612	0.086754
11:59:31.012	0.074722
11:59:31.312	0.069150
11:59:31.712	0.074541
11:59:32.012	0.085725
11:59:32.412	0.073845
11:59:32.712	0.071458
11:59:33.112	0.080268
11:59:33.412	0.088020
11:59:33.812	0.075955
11:59:34.112	0.074873
11:59:34.512	0.091222
11:59:34.811	0.088386
11:59:35.212	0.079594
11:59:35.512	0.075904
11:59:35.912	0.077877
11:59:36.211	0.077838
11:59:36.612	0.073460
11:59:36.912	0.073040
11:59:37.211	0.070599
11:59:37.612	0.076251
11:59:37.912	0.083346
11:59:38.312	0.081233
11:59:38.612	0.088229
11:59:39.012	0.084475
11:59:39.312	0.085409
11:59:39.711	0.083725
11:59:40.012	0.071365
11:59:40.412	0.066952
11:59:40.711	0.071888
11:59:41.012	0.073604
11:59:41.412	0.068454
11:59:41.712	0.078505
11:59:42.112	0.087996
11:59:42.411	0.073193
11:59:42.812	0.086912
11:59:43.112	0.080366
11:59:43.511	0.079863
11:59:43.812	0.089772
11:59:44.212	0.088869
11:59:44.512	0.084410
11:59:44.912	0.094440
11:59:45.212	0.086477
11:59:45.612	0.068695
11:59:45.912	0.066262
11:59:46.212	0.059022
11:59:46.612	0.087577
11:59:46.912	0.092397
11:59:47.312	0.066352
11:59:47.612	0.074649
11:59:48.012	0.087672
11:59:48.312	0.081705
11:59:48.712	0.055581
11:59:49.012	0.078483
11:59:49.312	0.096261
11:59:49.712	0.097667
11:59:50.011	0.096423
11:59:50.312	0.078555
11:59:50.712	0.098313
11:59:51.012	0.097830
11:59:51.412	0.090845
11:59:51.712	0.078245
11:59:52.112	0.084873
11:59:52.412	0.086585
11:59:52.812	0.091506
11:59:53.112	0.081965
11:59:53.512	0.079807
11:59:53.812	0.086854
11:59:54.212	0.086097
11:59:54.512	0.073816
11:59:54.912	0.059467
11:59:55.212	0.067352
11:59:55.612	0.076198
11:59:55.912	0.071092
11:59:56.212	0.066865
11:59:56.612	0.069079
11:59:56.912	0.076482
11:59:57.212	0.083837
11:59:57.612	0.094983
11:59:57.912	0.086264
11:59:58.312	0.086391
11:59:58.712	0.090497
11:59:59.012	0.080318
11:59:59.412	0.083116
11:59:59.812	0.079057
12:00:00.112	0.076701
12:00:00.412	0.073713
12:00:00.812	0.069595
12:00:01.112	0.074785
12:00:01.512	0.074851
12:00:01.812	0.078012
12:00:02.112	0.083117
12:00:02.512	0.074514
12:00:02.812	0.079141
12:00:03.212	0.087631
12:00:03.512	0.070748
12:00:03.912	0.077099
12:00:04.212	0.069399
12:00:04.612	0.069564
12:00:04.913	0.077208
12:00:05.312	0.076625
12:00:05.612	0.075802
12:00:06.012	0.087805
12:00:06.312	0.078340
12:00:06.712	0.079526
12:00:07.012	0.081195
12:00:07.412	0.059568
12:00:07.712	0.069909
12:00:08.112	0.092464
12:00:08.412	0.092387
12:00:08.812	0.074257
12:00:09.112	0.070261
12:00:09.412	0.071376
12:00:09.812	0.064782
12:00:10.112	0.081999
12:00:10.512	0.078560
12:00:10.812	0.063011
12:00:11.112	0.061225
12:00:11.512	0.068772
12:00:11.812	0.081045
12:00:12.212	0.077388
12:00:12.512	0.077074
12:00:12.912	0.081560
12:00:13.212	0.077739
12:00:13.612	0.079592
12:00:13.912	0.083729
12:00:14.312	0.065337
12:00:14.612	0.071087
12:00:15.013	0.076238
12:00:15.312	0.057986
12:00:15.712	0.078973
12:00:16.012	0.068754
12:00:16.313	0.070793
12:00:16.712	0.088563
12:00:17.012	0.077210
12:00:17.412	0.063098
12:00:17.712	0.059195
12:00:18.112	0.058872
12:00:18.412	0.079648
12:00:18.812	0.076310
12:00:19.112	0.048697
12:00:19.512	0.057718
12:00:19.812	0.099631
12:00:20.212	0.087804
12:00:20.512	0.071024
12:00:20.912	0.051700
12:00:21.212	0.066663
12:00:21.612	0.064582
12:00:21.912	0.086477
12:00:22.212	0.084170
12:00:22.612	0.068501
12:00:22.912	0.080224
12:00:23.312	0.067012
12:00:23.612	0.063756
12:00:24.012	0.075545
12:00:24.312	0.063082
12:00:24.712	0.087156
12:00:25.012	0.079348
12:00:25.312	0.075438
12:00:25.712	0.076095
12:00:26.012	0.060283
12:00:26.312	0.085356
12:00:26.712	0.063815
12:00:27.012	0.079166
12:00:27.312	0.086269
12:00:27.712	0.078416
12:00:28.012	0.074869
12:00:28.412	0.068065
12:00:28.712	0.068475
12:00:29.112	0.070166
12:00:29.412	0.058203
12:00:29.812	0.086378
12:00:30.112	0.075177
12:00:30.412	0.079779
12:00:30.813	0.082830
12:00:31.112	0.091091
12:00:31.512	0.066705
12:00:31.812	0.055790
12:00:32.212	0.075412
12:00:32.512	0.076680
12:00:32.912	0.079327
12:00:33.212	0.066921
12:00:33.612	0.060417
12:00:33.912	0.072619
12:00:34.212	0.076887
12:00:34.612	0.081438
12:00:34.912	0.075103
12:00:35.312	0.075137
12:00:35.612	0.073911
12:00:36.012	0.085871
12:00:36.312	0.077391
12:00:36.712	0.077866
12:00:37.012	0.073612
12:00:37.412	0.068950
12:00:37.712	0.059959
12:00:38.112	0.061755
12:00:38.412	0.075427
12:00:38.812	0.078910
12:00:39.112	0.052522
12:00:39.412	0.056798
12:00:39.812	0.081203
12:00:40.112	0.061802
12:00:40.512	0.053337
12:00:40.812	0.068184
12:00:41.212	0.083968
12:00:41.512	0.055750
12:00:41.912	0.056707
12:00:42.212	0.071425
12:00:42.612	0.071928
12:00:42.912	0.063051
12:00:43.313	0.070819
12:00:43.612	0.080757
12:00:44.012	0.059043
12:00:44.312	0.061349
12:00:44.712	0.043974
12:00:45.012	0.070183
12:00:45.312	0.078489
12:00:45.712	0.069745
12:00:46.012	0.047508
12:00:46.412	0.054888
12:00:46.712	0.080731
12:00:47.112	0.068438
12:00:47.412	0.050585
12:00:47.812	0.059655
12:00:48.112	0.074077
12:00:48.512	0.077496
12:00:48.812	0.063670
12:00:49.212	0.062695
12:00:49.512	0.065915
12:00:49.912	0.067273
12:00:50.212	0.054092
12:00:50.513	0.062416
12:00:50.912	0.069694
12:00:51.212	0.050667
12:00:51.612	0.082335
12:00:51.912	0.067439
12:00:52.312	0.071408
12:00:52.612	0.066572
12:00:53.012	0.066768
12:00:53.312	0.076824
12:00:53.712	0.080058
12:00:54.012	0.067207
12:00:54.413	0.069156
12:00:54.712	0.070695
12:00:55.112	0.075802
12:00:55.412	0.071294
12:00:55.712	0.071302
12:00:56.112	0.065999
12:00:56.412	0.060521
12:00:56.812	0.062348
12:00:57.112	0.053254
12:00:57.512	0.066306
12:00:57.813	0.069885
12:00:58.212	0.068068
12:00:58.512	0.068261
12:00:58.912	0.085068
12:00:59.212	0.042846
12:00:59.512	0.054973
12:00:59.912	0.076711
12:01:00.213	0.062019
12:01:00.613	0.055616
12:01:00.912	0.060566
12:01:01.312	0.070717
12:01:01.612	0.061251
12:01:02.012	0.073344
12:01:02.312	0.068136
12:01:02.712	0.063371
12:01:03.013	0.056837
12:01:03.312	0.059837
12:01:03.712	0.067245
12:01:04.112	0.072966
12:01:04.412	0.061988
12:01:04.712	0.064752
12:01:05.112	0.060481
12:01:05.412	0.052941
12:01:05.812	0.059638
12:01:06.112	0.065735
12:01:06.512	0.061197
12:01:06.812	0.065867
12:01:07.212	0.069025
12:01:07.512	0.058425
12:01:07.812	0.065498
12:01:08.212	0.060871
12:01:08.512	0.075013
12:01:08.912	0.071867
12:01:09.212	0.070824
12:01:09.612	0.066810
12:01:09.912	0.064432
12:01:10.312	0.079825
12:01:10.613	0.080234
12:01:11.012	0.065568
12:01:11.313	0.067555
12:01:11.712	0.067295
12:01:12.012	0.077086
12:01:12.412	0.084797
12:01:12.712	0.071175
12:01:13.113	0.082855
12:01:13.412	0.083634
12:01:13.712	0.076474
12:01:14.112	0.074047
12:01:14.512	0.087144
12:01:14.812	0.065595
12:01:15.212	0.063132
12:01:15.512	0.060073
12:01:15.912	0.077181
12:01:16.212	0.170697
12:01:16.612	0.147243
12:01:17.012	0.115117
12:01:17.312	0.096726
12:01:17.613	0.064633
12:01:18.013	0.060516
12:01:18.312	0.071796
12:01:18.713	0.066493
12:01:19.012	0.093800
12:01:19.412	0.074753
12:01:19.713	0.075563
12:01:20.112	0.073675
12:01:20.412	0.073198
12:01:20.713	0.069217
12:01:21.113	0.069581
12:01:21.412	0.067665
12:01:21.812	0.076012
12:01:22.112	0.088776
12:01:22.512	0.085345
12:01:22.812	0.069369
12:01:23.213	0.066762
12:01:23.512	0.066194
12:01:23.913	0.071226
12:01:24.212	0.075987
12:01:24.613	0.086088
12:01:24.912	0.097640
12:01:25.312	0.122329
12:01:25.612	0.131614
12:01:26.012	0.144048
12:01:26.312	0.137875
12:01:26.612	0.139859
12:01:27.012	0.137552
12:01:27.312	0.132634
12:01:27.713	0.124928
12:01:28.013	0.124471
12:01:28.412	0.125642
12:01:28.712	0.118853
12:01:29.112	0.098460
12:01:29.412	0.095166
12:01:29.813	0.102019
12:01:30.112	0.097808
12:01:30.512	0.086832
12:01:30.812	0.090740
12:01:31.213	0.095364
12:01:31.512	0.091902
12:01:31.812	0.090187
12:01:32.212	0.098112
12:01:32.513	0.083747
12:01:32.913	0.088969
12:01:33.212	0.111275
12:01:33.613	0.101198
12:01:33.912	0.099558
12:01:34.312	0.103160
12:01:34.612	0.052552
12:01:35.012	0.076557
12:01:35.312	0.098384
12:01:35.712	0.095893
12:01:36.012	0.082626
12:01:36.413	0.089397
12:01:36.713	0.099418
12:01:37.112	0.089684
12:01:37.412	0.075527
12:01:37.813	0.069686
12:01:38.112	0.087163
12:01:38.512	0.085812
12:01:38.812	0.099587
12:01:39.213	0.103835
12:01:39.512	0.084145
12:01:39.913	0.087807
12:01:40.213	0.082480
12:01:40.612	0.083074
12:01:40.912	0.087519
12:01:41.313	0.074123
12:01:41.612	0.063901
12:01:42.013	0.072419
12:01:42.312	0.099344
12:01:42.713	0.087109
12:01:43.012	0.078546
12:01:43.413	0.087410
12:01:43.713	0.081406
12:01:44.013	0.084108
12:01:44.412	0.076485
12:01:44.713	0.084248
12:01:45.112	0.079700
12:01:45.412	0.072715
12:01:45.813	0.064800
12:01:46.112	0.068433
12:01:46.513	0.090251
12:01:46.813	0.065651
12:01:47.213	0.063710
12:01:47.513	0.061468
12:01:47.912	0.070795
12:01:48.212	0.081091
12:01:48.613	0.076658
12:01:48.912	0.066710
12:01:49.312	0.067980
12:01:49.612	0.069887
12:01:50.012	0.059486
12:01:50.312	0.061334
12:01:50.712	0.086286
12:01:51.012	0.059578
12:01:51.413	0.050264
12:01:51.712	0.072006
12:01:52.013	0.065443
12:01:52.412	0.035019
12:01:52.713	0.063353
12:01:53.113	0.071545
12:01:53.413	0.079650
12:01:53.813	0.073420
12:01:54.113	0.061361
12:01:54.513	0.082014
12:01:54.813	0.060472
12:01:55.213	0.058494
12:01:55.512	0.068161
12:01:55.913	0.033638
12:01:56.313	0.060034
12:01:56.612	0.057058
12:01:57.012	0.064768
12:01:57.313	0.092198
12:01:57.712	0.084482
12:01:58.013	0.065769
12:01:58.413	0.061364
12:01:58.713	0.063453
12:01:59.013	0.091904
12:01:59.413	0.062899
12:01:59.713	0.083583
12:02:00.112	0.062801
12:02:00.412	0.067051
12:02:00.812	0.076235
12:02:01.112	0.069501
12:02:01.512	0.071057
12:02:01.813	0.062418
12:02:02.113	0.084015
12:02:02.513	0.087540
12:02:02.813	0.093668
12:02:03.212	0.083832
12:02:03.512	0.074384
12:02:03.912	0.038375
12:02:04.212	0.069050
12:02:04.613	0.065669
12:02:04.913	0.075998
12:02:05.312	0.068979
12:02:05.612	0.075459
12:02:06.012	0.058765
12:02:06.313	0.053426
12:02:06.713	0.072540
12:02:07.013	0.064876
12:02:07.413	0.035933
12:02:07.712	0.052816
12:02:08.113	0.086301
12:02:08.413	0.060404
12:02:08.813	0.049940
12:02:09.113	0.069872
12:02:09.512	0.067875
12:02:09.813	0.069582
12:02:10.213	0.072647
12:02:10.512	0.067452
12:02:10.913	0.056937
12:02:11.213	0.060303
12:02:11.612	0.040795
12:02:11.913	0.081171
12:02:12.313	0.081174
12:02:12.613	0.075226
12:02:12.913	0.061640
12:02:13.313	0.102763
12:02:13.612	0.080006
12:02:14.013	0.064815
12:02:14.312	0.069081
12:02:14.713	0.069045
12:02:15.012	0.084400
12:02:15.413	0.077345
12:02:15.712	0.072322
12:02:16.113	0.083602
12:02:16.413	0.083229
12:02:16.812	0.072532
12:02:17.113	0.072143
12:02:17.513	0.059832
12:02:17.813	0.075038
12:02:18.212	0.074987
12:02:18.513	0.080755
12:02:18.913	0.052777
12:02:19.213	0.088652
12:02:19.612	0.079815
12:02:19.913	0.078550
12:02:20.213	0.079685
12:02:20.612	0.070509
12:02:20.913	0.080184
12:02:21.313	0.075573
12:02:21.613	0.077365
12:02:21.913	0.070609
12:02:22.313	0.075962
12:02:22.612	0.075689
12:02:23.013	0.084664
12:02:23.313	0.086190
12:02:23.713	0.073741
12:02:24.013	0.067002
12:02:24.412	0.067955
12:02:24.713	0.061936
12:02:25.113	0.057136
12:02:25.413	0.062422
12:02:25.813	0.047913
12:02:26.113	0.072234
12:02:26.513	0.075115
12:02:26.812	0.076943
12:02:27.113	0.058335
12:02:27.512	0.072567
12:02:27.813	0.068997
12:02:28.213	0.063078
12:02:28.513	0.070612
12:02:28.913	0.072230
12:02:29.213	0.070619
12:02:29.613	0.077244
12:02:29.913	0.063691
12:02:30.312	0.052373
12:02:30.613	0.057335
12:02:30.913	0.091439
12:02:31.313	0.092279
12:02:31.613	0.073725
12:02:32.012	0.080340
12:02:32.313	0.078098
12:02:32.712	0.059115
12:02:33.013	0.078579
12:02:33.413	0.081172
12:02:33.713	0.074990
12:02:34.012	0.080449
12:02:34.413	0.091627
12:02:34.713	0.077983
12:02:35.112	0.048919
12:02:35.413	0.075442
12:02:35.813	0.044594
12:02:36.113	0.059465
12:02:36.513	0.055673
12:02:36.813	0.079634
12:02:37.212	0.085268
12:02:37.513	0.079900
12:02:37.913	0.085080
12:02:38.213	0.080780
12:02:38.613	0.078511
12:02:38.913	0.085407
12:02:39.312	0.082489
12:02:39.613	0.075747
12:02:40.013	0.071957
12:02:40.313	0.093786
12:02:40.713	0.080701
12:02:41.013	0.065244
12:02:41.413	0.100788
12:02:41.713	0.105791
12:02:42.112	0.112786
12:02:42.413	0.109005
12:02:42.812	0.100521
12:02:43.113	0.121209
12:02:43.513	0.117950
12:02:43.813	0.123055
12:02:44.213	0.140358
12:02:44.613	0.139179
12:02:44.912	0.138650
12:02:45.213	0.131308
12:02:45.613	0.164944
12:02:45.913	0.163910
12:02:46.313	0.198011
12:02:46.613	0.200780
12:02:47.013	0.196153
12:02:47.313	0.188401
12:02:47.713	0.181277
12:02:48.013	0.235692
12:02:48.413	0.230876
12:02:48.713	0.254871
12:02:49.013	0.236511
12:02:49.413	0.257227
12:02:49.713	0.233917
12:02:50.113	0.225138
12:02:50.413	0.279956
12:02:50.813	0.280896
12:02:51.113	0.278444
12:02:51.513	0.284594
12:02:51.812	0.310901
12:02:52.213	0.269203
12:02:52.513	0.262913
12:02:52.913	0.296656
12:02:53.213	0.295057
12:02:53.613	0.276467
12:02:53.913	0.278052
12:02:54.213	0.302998
12:02:54.613	0.308757
12:02:54.913	0.308303
12:02:55.313	0.288718
12:02:55.613	0.299157
12:02:56.013	0.278434
12:02:56.313	0.273045
12:02:56.713	0.273598
12:02:57.013	0.290591
12:02:57.413	0.280036
12:02:57.713	0.269000
12:02:58.113	0.260450
12:02:58.413	0.260710
12:02:58.813	0.247230
12:02:59.112	0.234460
12:02:59.413	0.230788
12:02:59.813	0.225539
12:03:00.113	0.199066
12:03:00.513	0.180223
12:03:00.813	0.181224
12:03:01.213	0.170496
12:03:01.513	0.158103
12:03:01.913	0.146083
12:03:02.213	0.148829
12:03:02.613	0.142025
12:03:02.913	0.148646
12:03:03.213	0.130480
12:03:03.613	0.118963
12:03:03.913	0.116637
12:03:04.313	0.123008
12:03:04.613	0.132878
12:03:05.013	0.126222
12:03:05.313	0.117492
12:03:05.713	0.105507
12:03:06.013	0.085763
12:03:06.413	0.136037
12:03:06.712	0.117490
12:03:07.113	0.105401
12:03:07.413	0.102731
12:03:07.813	0.116826
12:03:08.113	0.099387
12:03:08.413	0.107490
12:03:08.813	0.099193
12:03:09.113	0.095015
12:03:09.513	0.092436
12:03:09.813	0.102561
12:03:10.213	0.091975
12:03:10.513	0.092660
12:03:10.913	0.087214
12:03:11.213	0.095183
12:03:11.613	0.086220
12:03:11.913	0.096026
12:03:12.213	0.092824
12:03:12.613	0.096192
12:03:13.013	0.066301
12:03:13.313	0.081967
12:03:13.713	0.072362
12:03:14.013	0.082730
12:03:14.313	0.096273
12:03:14.713	0.069228
12:03:15.013	0.057617
12:03:15.313	0.062957
12:03:15.713	0.069057
12:03:16.013	0.082558
12:03:16.413	0.091319
12:03:16.713	0.079124
12:03:17.113	0.078453
12:03:17.414	0.049008
12:03:17.812	0.085271
12:03:18.113	0.086192
12:03:18.513	0.054528
12:03:18.813	0.066270
12:03:19.213	0.080520
12:03:19.513	0.076851
12:03:19.913	0.057184
12:03:20.213	0.095793
12:03:20.613	0.054146
12:03:20.913	0.066935
12:03:21.213	0.096600
12:03:21.613	0.088278
12:03:21.913	0.074457
12:03:22.313	0.064903
12:03:22.613	0.074456
12:03:23.013	0.078301
12:03:23.313	0.073664
12:03:23.713	0.063980
12:03:24.013	0.064639
12:03:24.413	0.074553
12:03:24.713	0.050210
12:03:25.113	0.053734
12:03:25.413	0.080935
12:03:25.813	0.064743
12:03:26.113	0.071140
12:03:26.413	0.065000