unconvertedTime, unconvertedIntensity
-1025.803615371275,0.07101905559140544
-1022.6605678425065,0.06766654854464772
-1021.4743265315053,0.06309763960584407
-1019.9112187516291,0.052140921011692695
-1018.7331597713144,0.05322892995112555
-1017.1587063185128,0.04742144330707149
-1015.9849001038833,0.04583340502476158
-1014.8033828072422,0.04566732307786551
-1013.2334781963291,0.046180235186814654
-1012.060136989189,0.05062013626180058
-1010.8830112455356,0.05001730684122182
-1009.3098049592398,0.05078933646513212
-1008.1369284833236,0.05094322292206361
-1006.956346977537,0.04233903269876613
-1005.3916070269087,0.03780753006190989
-1004.2152736627907,0.035936334192952765
-1003.0390800472993,0.03649013307865511
-1001.471039237023,0.036363503240205125
-1000.2951716048312,0.037311255878658016
-999.1194436382785,0.03895588319056595
-997.552023564212,0.038967112159766705
-996.3766213874072,0.036381148881592495
-995.1974414847408,0.03737023590422033
-993.6267257116741,0.03002212756210157
-992.4596220892232,0.02369816554084023
-990.8932564211035,0.03858539515486738
-989.7147297458469,0.03601881240257162
-988.1527130742562,0.023880934332685445
-986.9784268634515,0.024571366220042856
-985.8003664469321,0.02308103678249496
-984.2389677108702,0.018983288590619166
-983.0612335108596,0.023295279876370045
-981.8875515824614,0.0298670079532187
-980.3228589925269,0.03325557675601885
-979.1534129625744,0.03712314619053527
-977.5852425769898,0.02793715950782877
-976.4161202692793,0.0267572075251966
-974.852293207163,0.028262312902213278
-973.6756764356464,0.035086724657498895
-972.5031080248326,0.031011767281479932
-970.9398998167701,0.03369039293498213
-969.7676558834291,0.03698453681224642
-968.2048802222035,0.03996045553157212
-967.0368667994496,0.03434918869073224
-965.4706173377721,0.03657426946698099
-964.3029270426296,0.03451558942920567
-963.1275654782979,0.029782326247246402
-961.5658395408298,0.0318148027328641
-960.3947070797527,0.030985628662381096
-959.2237134415537,0.02967990430431982
-957.6665069594087,0.030964620769763418
-956.4958366827675,0.03562432888227316
-955.3214036070261,0.04255820742202347
-953.7609112851493,0.03676883487416494
-952.5946043050025,0.03596027254830051
-951.4206350610336,0.04411418337972501
-949.8607589988992,0.05496360830074693
-948.6910136565976,0.05069250605296921
-947.5214068906129,0.04473899949804255
-945.9660445665868,0.04116767515005807
-944.7928632062543,0.0507831841949532
-943.2340339482074,0.04664303140459149
-942.0689698509298,0.0549183076610026
-940.8962515811115,0.037442000605678816
-939.3419328262065,0.03443037295857798
-938.1734333235939,0.03358197356986252
-936.6156492014081,0.05975168818555501
-935.4435787978043,0.05484698197764641
-933.8862255878444,0.03551240688473015
-932.7183719925558,0.04092699369537911
-931.1614489017198,0.06166979305753465
-929.9939178289467,0.06237173944991826
-928.8265249392176,0.05694942871540985
-927.2741064613946,0.055117754003070764
-926.1031454372112,0.060645670113726714
-924.9401025259623,0.0413884319433954
-923.3844067519233,0.03261788432981683
-922.2139075043528,0.03907401288826978
-921.0474352082789,0.046149148390161536
-919.4923534683509,0.037722790028130275
-918.3262031227997,0.0462840606888731
-917.1640771941649,0.05970303610215109
-915.6096078991353,0.03672221235994025
-914.4400313856952,0.017462506462947433
-913.2744785947508,0.035496077372320245
-911.7206226079074,0.04964462489380812
-910.5592752621023,0.03946838816248862
-909.3902979408615,0.04065520089629469
-907.8370542871625,0.03997652612415023
-906.6722822209975,0.05632484020931167
-905.5076478483676,0.04530816296101617
-903.9511348933702,0.02358618437150416
-902.7907029832637,0.02738752389364776
-901.2384994655406,0.03827835535270335
-900.0745073399952,0.03221117890677873
-898.5227318098979,0.0347759729985086
-897.3629392842813,0.04441606697283483
-895.8038348262003,0.018552746119126655
-894.6404848748051,0.031875468613037
-893.0973193895436,0.037687330682440776
-891.9304126433781,0.04038204330406909
-890.7713963572103,0.05434699732629722
-889.2210862597736,0.03343830691092616
-888.0546388942835,0.024936000853387652
-886.5008822119512,0.019679590792459144
-885.3425050528159,0.012664747729924939
-883.7930497983607,0.023008276393390065
-882.6349913207865,0.04189751271965157
-881.469324280119,0.026605392907327056
-879.9243505693888,0.0472042376265321
-878.7590046113648,0.02678774408456453
-877.5976675723055,0.016997635744118132
-876.0533017124081,0.022949663799625493
-874.8922840435381,0.02783730090840673
-873.7314034030179,0.024208313131293045
-872.1837756622728,0.026142993458157047
-871.0232146602386,0.022123092147719223
-869.4760130161297,0.019939482701717068
-868.3119042778617,0.013935857192361166
-866.7651291627824,0.015601706440555837
-865.6052074979589,0.01721971061309363
-864.0588581274674,0.02049707521755795
-862.9031208193651,0.01863205777051841
-861.7436547190638,0.01956920465172628
-860.1979126425616,0.015151069974191786
-859.0349020018613,0.01363866640657011
-857.4895858510085,0.03395629097595233
-856.3346207154124,0.04591251841275329
-854.7897290997523,0.0152588697311422
-853.627358298587,0.011404214116941544
-852.4728470206779,0.01954157347902302
-850.9247020401472,0.007246527562176252
-849.7666483512581,0.006508926177223941
-848.2227891014034,0.007542913154172091
-847.0650538842256,0.012630930283376019
-845.9113135506465,0.027936001587473423
-844.3642022989202,0.024074444186487944
-843.2069218134916,0.025006902993768353
-841.664093288971,0.028959582570756266
-840.5071309563762,0.02722006773085018
-838.9647265481668,0.026238472998461156
-837.8119374919149,0.02016777196413173
-836.6554289816893,0.017968854771193737
-835.1136295452357,0.014565637780311672
-833.9535851283894,0.018945062936438526
-832.4122099891596,0.030590651097047786
-831.2563374708359,0.023578605895782322
-829.7153858488116,0.028516546882580124
-828.5636825267262,0.03235154614588117
-827.408263189759,0.03332967770609685
-825.8640651192959,0.03200679190368187
-824.7089636213562,0.031554507058614616
-823.5539981057499,0.026493576460964223
-822.0142555715252,0.02626315288816741
-820.8596072546709,0.024622185922692434
-819.7089429891298,0.02665953897737713
-818.1621087725881,0.02657332725307837
-817.0156080062068,0.030891686770875195
-815.4768914745043,0.032014067811034774
-814.3191664648731,0.032490013752830754
-812.7847183913813,0.028936944948359064
-811.6273111887695,0.024477609460538317
-810.4738851295591,0.020491251008896615
-808.9361947811807,0.017587918746204086
-807.7869287597848,0.017123304940171738
-806.2458169379368,0.018935200513880337
-805.0930238780488,0.021387340972803197
-803.5561773550407,0.03176112696143763
-802.4037005994219,0.02559932477910618
-800.8672757286561,0.03183511366376605
-799.7151151471423,0.03226686842707778
-798.559250171765,0.028737769206314583
-797.0272672176145,0.025192320811868146
-795.8755580877454,0.020945299156425675
-794.723984341627,0.024754915289140957
-793.1887632358297,0.025758272947042006
-792.0375052923144,0.031374487869170575
-790.8863826530047,0.02632869137258225
-789.3517628992486,0.02717480734031065
-788.2009558770106,0.02700018846819143
-786.6667568594786,0.033418576009763834
-785.5201000717642,0.038175397927147914
-784.3659089586889,0.03768564117201083
-782.8323106928237,0.042681008831543604
-781.6822696289871,0.043098608752966054
-780.528530860855,0.03901831220048097
-778.9993657879085,0.027908236947953514
-777.8536066759158,0.028199785519638552
-776.3171971331368,0.036935045194401876
-775.1679212632414,0.03983939267765949
-774.018780348292,0.041436244169228115
-772.4868023505284,0.03569905794769749
-771.3379762380247,0.031948498259008015
-770.1931137480311,0.029734873164211167
-768.6579064512237,0.03460972242271734
-767.5095298321545,0.03923418027193829
-766.3612880096728,0.046704185355849095
-764.8305085555959,0.04163079369159884
-763.6825811662047,0.03749479602712224
-762.1522208701412,0.04429715037658629
-761.0084329379542,0.04715781847826878
-759.8571293614457,0.0497726241175887
-758.3273675639684,0.05570332835944112
-757.1802032603036,0.04580234293148391
-755.6508602029585,0.0352652549347664
-754.5078325008124,0.03147982031342583
-753.3572941048226,0.03479155930684348
-751.8285489494842,0.04033330694291549
-750.6821469708966,0.03618178350775784
-749.1538201383647,0.024823121714935396
-748.0077318374931,0.027828362567366774
-746.4798231560869,0.02917151228361547
-745.3378674302104,0.030118901329547077
-743.8065577023323,0.04007058638017094
-742.6649143521481,0.04810136706152637
-741.51195179057,0.04405581457268789
-739.988875437164,0.04546910483435727
-738.8438616259135,0.032442241912737146
-737.6989820196148,0.036600691987687756
-736.1726846003577,0.042383016130405626
-735.0319330462263,0.043495133794258366
-733.5060523495093,0.0467009670144947
-732.3579843181199,0.04641810468309032
-730.836334725138,0.04987528745496983
-729.6847676209505,0.05364217414330702
-728.1635345561359,0.05577574669916757
-727.0237182637113,0.05195386557538714
-725.8802236148637,0.04505847124112571
-724.3519615973037,0.04057151095524969
-723.2087798800728,0.045550049802915465
-721.6885556371336,0.04021417367122086
-720.5418764885977,0.04248213742870291
-719.3991409565266,0.048144046579146844
-717.8757017168778,0.04595134711704531
-716.7332783590108,0.04337028399376647
-715.5909887509285,0.044482515972192875
-714.0681439547872,0.046101435941596165
-712.9261663382157,0.047731894884518525
-711.4037374455378,0.05833434983266964
-710.2620716926684,0.05634490108655375
-709.1205395565685,0.055011948648787036
-707.598704516199,0.05985858647833448
-706.457484061349,0.05814815117430236
-704.9360645108768,0.05304961944332736
-703.7951556096444,0.04847467437508157
-702.6543801923316,0.054831091385694156
-701.1335539037573,0.05289139917589784
-699.9930898578509,0.05719815616905459
-698.472678646158,0.06191652648620484
-697.3325258441887,0.055745902351474225
-695.812529539477,0.04393140830944452
-694.6764871049036,0.03630765205242375
-693.1531062865022,0.030088705572560097
-692.0135755902933,0.03368049684783515
-690.494408590189,0.04202916198708463
-689.3551887559419,0.031268316114836534
-688.2161021093126,0.03238517770140069
-686.69752705418,0.03947245019027858
-685.5587510878408,0.04485085931431497
-684.4201082312874,0.05050359066865593
-682.9021247752173,0.028892924493327296
-681.7637924174178,0.02951972242821234
-680.6255930916395,0.03861826242281046
-679.1119940747055,0.05283194319608687
-677.970311880577,0.04964701517901656
-676.8325558264687,0.05179545717163687
-675.3157545318718,0.044100873557156715
-674.1783086138817,0.059177766107841485
-673.040995572552,0.06312451144802261
-671.5285750732801,0.05704985551049162
-670.3877817545778,0.04636185968085099
-668.8719842117935,0.03976550532829435
-667.7390797107962,0.05014536949599014
-666.5987304405784,0.048022099849536225
-665.0835228746841,0.04682064052498447
-663.9510592914183,0.04476037318119369
-662.8111538104712,0.036242549176137256
-661.2965358770864,0.03815372962879893
-660.1607271453569,0.04007072341793638
-659.0288363704256,0.034751577784977034
-657.5148071363287,0.03388428137249142
-656.3756555028136,0.0357309793303454
-655.2404211596216,0.04248938934173294
-653.7269814591956,0.04725814121555372
-652.5920562216878,0.043846614642658585
-651.0790285780085,0.037444614990829427
-649.944412319954,0.03230323892815811
-648.8099284430446,0.032701460426502904
-647.2974891600053,0.038543644066546486
-646.1670944461453,0.042175149078170555
-644.6512864475727,0.0443017645937962
-643.5174200430884,0.050408397435559034
-642.0058038885637,0.0522849611556851
-640.8760243378542,0.047447351670997145
-639.7388203699276,0.052821913831075894
-638.2277917530007,0.05574151724509876
-637.094674458977,0.05091715785416601
-635.9616892838513,0.04818775228188017
-634.4512478620418,0.04476971980977365
-633.3185708745008,0.04423613627160444
-632.189800859367,0.045180448344663005
-630.676171359948,0.055530759463911054
-629.5439344222996,0.05460847572394095
-628.4118294496116,0.05059510916478563
-626.9025613916523,0.0473308104181987
-625.3935278423836,0.04357736226633117
-624.2619065438912,0.03904237997492855
-622.7532832533419,0.039533110322468555
-621.6257404127468,0.0405751475622016
-620.4907877225353,0.03723483687271053
-618.982750225707,0.03474360914027182
-617.8556451767796,0.03223643243153828
-616.348016947192,0.027034815444895815
-615.2136810853626,0.029849041252574794
-613.7064631267189,0.022212022558681703
-612.5762032435986,0.02207902899377913
-611.0731615329307,0.022235841242260548
-609.9394419967766,0.02769432803719491
-608.8096207558508,0.02931374913468551
-607.3033970528885,0.03314033029866334
-606.1738827095852,0.032442476035272255
-605.0444998555594,0.027671829464963552
-603.5426243562708,0.03608631915340373
-602.4097844143847,0.03540706260642634
-601.2846026229605,0.03291813970027935
-599.7757844427177,0.03164009922827615
-598.6471462610631,0.027715161514334136
-597.5186394157239,0.024081078915385922
-596.0141678832515,0.029984496764812404
-594.8859674001749,0.030798710080133043
-593.7578981770237,0.03165938209732927
-592.254010022003,0.03419643908413746
-591.1262469829363,0.03483457245570702
-589.6227669902543,0.028450658846911617
-588.4953100106379,0.02469364255279785
-586.9922380141566,0.029224538798245995
-585.8650869694076,0.029496214754471308
-584.3624228030789,0.0350618032738325
-583.2355775686955,0.031956765162221366
-582.1088633578,0.02709508929459607
-580.6067815180952,0.026792305740016287
-579.4803729398159,0.028522682365484026
-578.3540953088783,0.04035913653434979
-576.8525954573585,0.042333289804847594
-575.7266232814256,0.046299310892500924
-574.2255306204089,0.042589863773333514
-573.0998637752367,0.039092171700985945
-571.6029295632554,0.041309558174614666
-570.4738165005152,0.04212964789195314
-569.3485856267491,0.039645307171972934
-567.8484811676219,0.0364527457750623
-566.7235553231568,0.03846616086832862
-565.2238574870748,0.0340456250805448
-564.0992365478996,0.03213726948302361
-562.5999451695573,0.03119481498601862
-561.4793765153192,0.03150471476602384
-559.9767439258991,0.034982097052695366
-558.85273242552,0.037373992742554596
-557.3542534670925,0.03954392179535454
-556.2305465003551,0.03874719856546789
-554.7324735042818,0.04283927528305686
-553.6090709474432,0.04221776782880015
-552.4857988141279,0.03991946835513123
-550.9883054781537,0.04138376307846072
-549.8653375780692,0.03732573147460951
-548.3682498040046,0.035251100679275546
-547.2455860135764,0.03851317895873989
-545.748903636693,0.03309435004325334
-544.6265438323951,0.03173807167970488
-543.5043142700788,0.03197444941665318
-542.0082107464367,0.042165349012174946
-540.8862849939135,0.04408743760188336
-539.3943254255838,0.03732422501467386
-538.268964401679,0.03777774534143089
-536.773670708579,0.04139266677166499
-535.6523522056578,0.04331494132777171
-534.1574631812744,0.04040037542039903
-533.036448118287,0.03697995358980139
-531.5456995215283,0.04204710659426207
-530.4212518521663,0.041481663574502545
-529.3006700611818,0.04701001797186034
-527.8067631200416,0.05509052406505393
-526.6864844700223,0.05399239427488265
-525.566335699904,0.05373831984722588
-524.0730060027728,0.06105108965147245
-522.95689280165,0.0650143652588709
-521.8334441977316,0.056490503958773634
-520.3406914101113,0.05360300084112637
-519.2212781996423,0.05352563855273196
-518.105725448066,0.058071568218825524
-516.6098185062427,0.05272937784277132
-515.490837639526,0.05045366661108996
-514.371986427091,0.053191427211333395
-512.8803864560036,0.05803657211094216
-511.7618376826157,0.05632864092383673
-510.2706408818342,0.060488859901512454
-509.15239442487547,0.05770059882613309
-507.66160063096453,0.05751742527149012
-506.5436563678877,0.05440526640961969
-505.0532654174932,0.05819762843923482
-503.9318979682813,0.05567875956244146
-502.81811045584533,0.057115528756416116
-501.3282947129974,0.0672125696398441
-500.21108383956624,0.06610014203127344
-499.09400231292335,0.07404428110015379
-497.6047614446905,0.06917717080667282
-496.4879816398706,0.07151159370633073
-494.9991429859104,0.07137019683023282
-493.8826647806887,0.07552198638816582
-492.39422817807537,0.0766530009162711
-491.2780514503001,0.0763808526586734
-489.78629693712463,0.07731768208131545
-488.6741413637658,0.08249940124100134
-487.18650837543476,0.08382352059891847
-486.07093423632267,0.08740496484737721
-484.5799850200136,0.09863293921475237
-483.468429783346,0.10505977737999884
-481.97788297095826,0.12204902809376068
-480.8666277203655,0.1364117220611555
-479.38019893372785,0.13014308609024902
-478.26552776307096,0.13427469944855142
-477.14727057305555,0.14514671194822285
-475.66512962729826,0.15500303543894597
-474.55088805633756,0.16085313947918145
-473.436775316852,0.16250599645096062
-471.95149203011476,0.17725324278663096
-470.8376798105436,0.1804602457970353
-469.35279713595344,0.18455709120317992
-468.2392853147115,0.18881074979483442
-466.7548030902181,0.1973618630253063
-465.6415915457962,0.1978753993333237
-464.524798593068,0.2055730912388869
-463.0445982203765,0.1896033009907583
-461.92810637125103,0.18551605227596749
-460.4483050551909,0.186324455040151
-459.3358222489976,0.18632800919242787
-457.8527117671271,0.1789107107679699
-456.74052882163977,0.17082128243540365
-455.25781807322204,0.14290813658039975
-454.1459348672268,0.1306911122809903
-452.66362369067775,0.14791026172604432
-451.5520401030123,0.1440073097457959
-450.07012833683723,0.1505391554542931
-448.9588442464125,0.15650119639595106
-447.84768847489823,0.14295072507414103
-446.3663470149901,0.12334344643827203
-445.25549056784314,0.12054044378360404
-444.14476236554475,0.11818513441288604
-442.66028923965166,0.11766209992006435
-441.54986061625334,0.11347028231366962
-440.44326095225125,0.11215886021385824
-438.95935889852717,0.11429544182159355
-437.8530572168643,0.11668088366434479
-436.7394840477934,0.1217825406596741
-435.2635508979346,0.11979344989887622
-434.15397590057387,0.11595894836721678
-433.0408309836985,0.11500728165529457
-431.5617680286654,0.11590155403952651
-430.45262011505014,0.11576331103250757
-429.347296671242,0.11105065854996772
-427.8688018104053,0.10805742062765858
-426.76007988142544,0.0904713736825645
-425.6514858278496,0.0889206445151858
-424.17355930213796,0.09107106177099362
-423.06526353847863,0.08639631763612261
-421.9570955765002,0.08006351413864762
-420.47973705827854,0.07559310934313074
-419.37186721427304,0.07836630374233246
-417.89490610648164,0.07970852749991073
-416.78364256752656,0.08145357545467347
-415.31077040246936,0.08405290078146171
-414.19980573382315,0.08932678562998153
-412.7273296657721,0.09430194544269954
-411.6203534542491,0.09792826663009621
-410.5135048162339,0.09756225849098177
-409.03790504178403,0.09720201065214483
-407.9313539895557,0.10137213247667258
-406.4561509161427,0.09102001114851305
-405.3498973296936,0.09076572541967227
-403.87509079736503,0.08341103395617631
-402.7691345567688,0.08326906711255935
-401.2947244056564,0.08337093893220605
-400.1890653910464,0.08464749043808434
-399.0835337223242,0.08017794692557556
-397.6096895529405,0.08016399553995358
-396.50445493907677,0.0778705384236879
-395.0310067630196,0.07952091429126516
-393.922386171457,0.0791833131691995
-392.8212586268705,0.08403764988107228
-391.3446939552345,0.08346341718572221
-390.2438621855895,0.0937866547353805
-388.7676941087954,0.09717893191281711
-387.66347748398573,0.09729354692258184
-386.1913863532207,0.09896474982256286
-385.09114577605425,0.10449462814065004
-383.98367319924785,0.10338118547111284
-382.5158252502436,0.10724663182089357
-381.4123281272087,0.11099905479797673
-379.93751859179736,0.11286068414459223
-378.834318127139,0.11150788336298377
-377.36725816375395,0.10733632235272078
-376.26067725491794,0.10103934486823409
-374.7940110464156,0.09328760900681998
-373.6914022714401,0.09219870719237687
-372.58892031575806,0.09149573405195278
-371.11914161149383,0.08499739286027785
-370.01695548241827,0.08565883588152956
-368.91489609972626,0.08656185253647443
-367.442007956535,0.09154676217438004
-366.3439169865942,0.09500380956245721
-364.87509572901433,0.09830571826452315
-363.7699561915956,0.09826090069697466
-362.66861504765603,0.0964347548706435
-361.20402748389165,0.09375140501482479
-360.1029812856768,0.09437120496118814
-358.99839211670036,0.09551094800450416
-357.5306966319922,0.10513582476821966
-356.43007260326533,0.10866187792564694
-354.9664386111871,0.10492152581237965
-353.86244168703206,0.09269795050171643
-352.39553308013507,0.09967985161647111
-351.29549909110335,0.098000171856535
-349.82898368583704,0.09066944773456628
-348.72557895283546,0.09082169677713339
-347.6332968824447,0.08177130050512682
-346.1636777533385,0.0813647532290702
-345.06802378751723,0.0759169163237269
-343.9688314688062,0.0714353292311783
-342.4997748627262,0.07308287772772465
-341.40087746828084,0.07445400792561761
-339.9358772178808,0.07491293051366799
-338.8372742085572,0.07667808453287231
-337.3726663927879,0.07416864731175532
-336.274357650305,0.07634212635471792
-334.8101421115019,0.07567184022049334
-333.7157873569346,0.061034884117819335
-332.6142389513132,0.056822808332039655
-331.1542423941222,0.06302346768252683
-330.0566473877597,0.06320228836038626
-328.589725426338,0.05129798914018514
-327.4924247016563,0.04756304992340127
-326.03320981708686,0.04965247288902353
-324.9362024166513,0.044788791154393076
-323.47006573055745,0.03674153257757589
-322.3733523755306,0.03198439801829295
-321.2731097425786,0.027552971212499954
-319.8148437458199,0.0323414074968955
-318.72220375663204,0.035155091604832996
-317.6223812893184,0.036544311130619525
-316.16101901746254,0.03181843559986529
-315.06879665234254,0.028774577470333074
-313.6041726461823,0.02463853371714543
-312.50859074445503,0.025978310931507983
-311.05166143624706,0.029378454260842072
-309.95272141563703,0.0278191049085447
-308.49618179107296,0.026116082125136053
-307.4011854612389,0.0252222321141906
-306.30266528010407,0.025307465064080364
-304.8466820753103,0.02638232912484432
-303.74845563867194,0.025651622253742668
-302.29286173802967,0.026123037153822207
-301.1949289280838,0.02847633937469694
-299.73972417547344,0.027518384518412917
-298.64573130776665,0.024833224515465272
-297.18726911385875,0.023135992581904696
-296.0935686627882,0.024732495367037314
-294.9927034164875,0.02786610578124523
-293.5420881278937,0.02701782721972766
-292.4488052115338,0.024086202647417752
-290.9912894296691,0.024887814574720207
-289.89829864535585,0.027622658391415558
-288.80179034852705,0.027930579465041124
-287.3448314054958,0.02946691161304873
-286.25589986961415,0.028974244760979755
-284.7956884317979,0.028515966998767635
-283.703407040592,0.026033593964114674
-282.6112506911654,0.02277589230507269
-281.1588764554767,0.02909238210613915
-280.0633720288065,0.029658113255465832
-278.6113856508026,0.027112592237005413
-277.51617375991975,0.023304296270355556
-276.06093726989286,0.02862484314667961
-274.96965561200176,0.03127491576187273
-273.87849882425803,0.02868892131274681
-272.4238173126847,0.03212312905283284
-271.33658781633505,0.03200293301069943
-270.24221109663137,0.02356304678407073
-268.79171928667915,0.024050214464992885
-267.70126927599307,0.021667665903922103
-266.2475299451743,0.024119381388986536
-265.15373727701956,0.030222430963981063
-263.7003864191433,0.029544253474577342
-262.6105187022678,0.031541065621203644
-261.15755560780775,0.029158685260194942
-260.0679786552931,0.019359753163630547
-258.97852628046223,0.02286834013344253
-257.52611686459494,0.02111702348283729
-256.43695508794383,0.024042069514075753
-254.98493305880567,0.027436736610681006
-253.89606176407798,0.023604181595403593
-252.80731492603172,0.02325525084258836
-251.35947443414165,0.027479928317942326
-250.26738951561873,0.029764765206380037
-248.8163076378255,0.022379753133101914
-247.7281413155823,0.021501544217522144
-246.2810727555352,0.022775517103738416
-245.18957005511848,0.021190666068609757
-244.10181810281068,0.020583556815042797
-242.6553005447458,0.017526000607694558
-241.56421342939493,0.017302071977794715
-240.48049986346317,0.015116848387566748
-239.0272850384765,0.017007497439661644
-237.94386025938587,0.01816028092142602
-236.49465539537954,0.015733801934313934
-235.40789655207388,0.016060918461090937
-233.95907779351094,0.011100470493111917
-232.8689871144594,0.016045779584506
-231.42417566402383,0.017823201157150585
-230.33799574747388,0.018384507172547963
-228.8899487370359,0.018940167268222084
-227.8040581104023,0.021751869785413186
-226.71467241475858,0.025215455138179424
-225.27079529053424,0.027667504526965935
-224.1816996834112,0.02594269410659719
-223.0963464158346,0.021636067362047724
-221.649401383885,0.0258063381622756
-220.56433707605805,0.028185148149494414
-219.4830128355175,0.030201942219011072
-218.0330017833925,0.02578414188322583
-216.95196537522384,0.02504515876852779
-215.4987255198091,0.023315799646240514
-214.41797724004556,0.023107393646054908
-212.97235226304454,0.027924978517238335
-211.89189117495172,0.029631804164578356
-210.44303749755176,0.022754398432099678
-209.3628638972849,0.024857314501600166
-207.91439570354112,0.02131741765195293
-206.8308980226585,0.02205234130694183
-205.38642661246118,0.02422957992998203
-204.3032171506609,0.0244774223719491
-202.8627399002056,0.022877620851588287
-201.7762085982066,0.01732704560117812
-200.33250546561663,0.022179843298235438
-199.25348067000417,0.021134649392986513
-197.81016089805885,0.019195448711229583
-196.72420737923977,0.014104720243218348
-195.28487897679608,0.016364359252330603
-194.19921417675732,0.017226954137180978
-192.76026841824103,0.01831384931942144
-191.6748922218566,0.012354123884497609
-190.59324537309715,0.011401043592818825
-189.1512412469104,0.016523959182787547
-188.06988187909494,0.01981832386846792
-186.98864568231394,0.02097862223367266
-185.54718898295818,0.015475689580789952
-184.46624010343106,0.01925145221364063
-183.0251664174012,0.020319420170499942
-181.5843115275873,0.020855333483613053
-180.5038139152766,0.017830155548956804
-179.4234393267982,0.01674702684306635
-177.983131209586,0.01648359591848656
-176.9066436828142,0.019783090490399842
-175.82307893427208,0.02866903735536157
-174.3833172784847,0.026812103734601828
-173.3036394283439,0.03149672252889457
-171.86785828647848,0.03819151655744117
-170.7848689567668,0.03785785510280079
-169.34587182465597,0.03694927604017115
-168.26676725307632,0.03680097837583955
-166.83174842007656,0.033072165119425255
-165.74933405096266,0.033550837871856365
-164.31110083373264,0.03212110384430383
-163.23256908424872,0.0295955119500542
-161.79471759636735,0.02710854367658499
-160.71647208690112,0.02930383434529118
-159.2790021764175,0.03065153637393788
-158.20463578732958,0.029317929967974835
-156.76395430806647,0.027526485073647185
-155.6862809368924,0.02763818201020626
-154.61232174009925,0.028214370783084898
-153.17218625286918,0.02365216467648691
-152.09851195295965,0.021220278340172944
-151.0177787655858,0.02052142177071308
-149.58177923167602,0.016852506727056914
-148.50851173069915,0.015130538895485815
-147.07289249330793,0.013400824742351079
-145.99273247102258,0.01423176091279377
-144.55749446656992,0.021153711284877502
-143.48120867969243,0.02209240860319061
-142.04635121282254,0.02391022306976459
-140.9739372374184,0.022026146578850093
-139.8944725885279,0.019395090013926128
-138.4601584842975,0.01712831577350658
-137.38456548480835,0.018328418250678574
-136.30909467248355,0.0214580901593802
-134.87532362230704,0.024458696945105992
-133.8001378323948,0.023968807740150058
-132.37032994366064,0.019902346317221754
-131.29184585578827,0.021191493384600555
-129.85883456330632,0.025630967730165332
-128.7878003293296,0.026351288422176444
-127.35158683833698,0.023411199333597348
-126.28083633822295,0.025179066325060413
-124.84500329764053,0.028719005757058227
-123.77095646509207,0.0286719671254464
-122.33908367733845,0.026137862255536742
-121.26532130135202,0.026751628518371793
-119.83382771368228,0.020575669633107738
-118.76034968127047,0.019519705377443297
-117.32923514306995,0.022130451664441098
-116.25604134129955,0.01844035089154487
-114.82530570203491,0.0118620182674805
-113.75239601803504,0.016114449311328924
-112.32203912724613,0.023862693000814162
-111.249413448211,0.02684027277738192
-110.18048426228476,0.025870824837858623
-108.74709336869425,0.029681028624321308
-107.67487321545653,0.030404734177066396
-106.24543551650885,0.034069735428683696
-105.17349909450733,0.0334185810840549
-103.74443962879812,0.03154223985354323
-102.67278682542756,0.029008949422440627
-101.24410544285443,0.024374728558703703
-100.17273614557195,0.02176041851156337
-98.74800318551767,0.020183385373119738
-97.67691687706666,0.022165913461090214
-96.24542112612899,0.0186026205530223
-95.17818764406654,0.020954870588171366
-93.7470704706259,0.028282944219434825
-92.67655101690862,0.033776999433466424
-91.2493804674418,0.034853945367397034
-90.17914407021834,0.0375211817445212
-89.10902894855393,0.03328957219781648
-87.68239740158046,0.0378310641607317
-86.61613108213915,0.03399814127487151
-85.53928865669667,0.03178763793191417
-84.11676130765902,0.03395479635707308
-83.04733302495109,0.032781526260875375
-81.62161708170055,0.028756435604448613
-80.19967992968394,0.028910404144912877
-79.12713223671476,0.02577979129599302
-78.06183176577923,0.0276368726183279
-76.63686864953137,0.029985195890388797
-75.56828749903752,0.03185383706311241
-74.49626601132502,0.028987930583368904
-73.07184118524697,0.030114516512572156
-72.0072240632157,0.02744039816286514
-70.5796150917966,0.02698306788681708
-69.51171970714844,0.023704998136894122
-68.08804722299017,0.02402726471058346
-67.02043385479323,0.020509611837747996
-65.59713731809335,0.02474522440941446
-64.52980585464768,0.026051852220812764
-63.46259517334607,0.027531147986406355
-62.039835446180724,0.02306982075015666
-60.97290651016051,0.026666593435464108
-59.909654114874485,0.02335838411529895
-58.4838750666936,0.01917806851114572
-57.417348430429946,0.017528464925028693
-56.35449692597703,0.019982568137631974
-54.929255420939825,0.017411408654977704
-53.863130856939996,0.012955723370306694
-52.79712687028114,0.01428988678329881
-51.37597575080458,0.014541383160331123
-50.3102530317412,0.014814706031358168
-49.24820262906489,0.015574186878188196
-47.82403529873954,0.019664508063570677
-46.7587141974587,0.015750759698980127
-45.34202374668179,0.01780752720726552
-44.27343330776288,0.018767020790576218
-42.853567111021476,0.017831074980804586
-41.78880789335049,0.021020644927095468
-40.36931613749537,0.023562721647048705
-39.304837694939984,0.026172774410979437
-37.885720231869136,0.031049400817223627
-36.825069579555105,0.027982484060139555
-35.75744492552912,0.02956763225841418
-34.33886190968704,0.02734863711334612
-33.27506488736494,0.02555538166747896
-31.860401061305677,0.02645069990897634
-30.796884033134816,0.027489691594210486
-29.37550388048399,0.026621122180179785
-28.308723616269443,0.027614265675727445
-27.24915128040359,0.03146082616882825
-25.835392694585277,0.03504193883490821
-24.769013576118752,0.03669953667511636
-23.352085429384083,0.04709687627505853
-22.28952931358503,0.06281499901148636
-20.87297444619833,0.0669854193671209
-19.814238956075464,0.0717244346178378
-18.394516499068803,0.08969575485432496
-17.332520081068385,0.10225612525401824
-15.916711329998744,0.1150366658491649
-14.854994595078406,0.11985379974615666
-13.7969361478391,0.14165524553176895
-12.378121518820027,0.1693790287989915
-11.316804139543187,0.17729002872731525
-10.255606523024543,0.2028893657253696
-8.840862630250301,0.22626822822091194
-7.779944381336012,0.2506133901504001
-6.722681624002271,0.25686323442466297
-5.301398650332887,0.2792010315345085
-4.244414569890822,0.285189944503228
-2.830574862388159,0.31175027365314456
-1.7738685540575043,0.32028261221179133
-0.3568669707047214,0.33137227812725667
0.7030942834586545,0.34740684900745367
2.116190018502267,0.3639215630957773
3.175872393106766,0.3629888900536229
4.588596362107406,0.34840375953449987
5.651531112812005,0.34629633034315943
7.06035231684977,0.33555338725896755
8.119477262419155,0.33138294417847436
9.182012635015587,0.3271245804893143
10.590304535306794,0.30889073572658776
11.645502694571206,0.30182567579173464
13.056953680599557,0.28128902611416284
14.122458663563602,0.24990297231700337
15.5335374722596,0.21604784546040362
16.58818041529945,0.19838715965181897
17.64623156051844,0.17339994841267245
19.05678098599315,0.1426570579223894
20.11455400509517,0.1221360176119518
21.524732668855904,0.10977234318873501
22.582227671497154,0.10202114253749663
23.99203571970792,0.08557244055526701
25.049252815476855,0.06714782136379772
26.455167064174116,0.05230755046677951
27.515629692656617,0.04841121659606714
28.924696947953176,0.04981840954129721
29.981358558525965,0.04323319871716112
31.39005563630379,0.040300038818566586
32.798541249555164,0.03526581242866638
33.85476671454487,0.03421457685689447
34.9108732776058,0.03061041815995393
36.318830437827145,0.03492126119412264
37.37465964111773,0.036342238170244574
38.43037000938294,0.03678590628818805
39.837799013922115,0.03786071135671858
40.89323217846619,0.03605750831352746
42.30029165083358,0.04339636573420667
43.355447720827556,0.04283189297959646
44.76213780653935,0.034452630036668215
45.817016891089196,0.03465703756558493
47.21982219649972,0.038685598770083124
48.27793994374317,0.03623258164043443
49.3324235239579,0.037546329362606705
50.74173135297751,0.03524288567022809
51.79242399265711,0.03436513309819877
53.197848713526916,0.028671485499443445
54.25177896124789,0.03527525255746554
55.65683493897132,0.03858757593176079
56.710488683756076,0.03699131779012802
58.11517606344005,0.031261050228590416
59.168553414085565,0.03292246464453362
60.57287234075568,0.034782594449022514
61.62597340600472,0.039015790401562805
63.02992402461337,0.036424096287506015
64.08274891314638,0.037896413411644084
65.48633136856736,0.03949987197287707
66.53537188943791,0.0380180519138083
67.94209462604451,0.044195234218302945
68.9978748654558,0.040941556570763184
70.39721405033609,0.03600290133837405
71.44921106026953,0.032022189895026566
72.85168989460333,0.028301433315598173
73.90341116199221,0.025291290188588226
74.95501428718799,0.025832773916083154
76.35346342252164,0.025427960142751407
77.4082955826063,0.030370384892000155
78.80637825822635,0.03422475266568196
79.86093402058034,0.04571433575912595
81.26215316678939,0.04128884196087161
82.31292985376449,0.04249388068298091
83.71378191061494,0.03737897617140186
84.7642833346694,0.036738726031288804
86.161267495003,0.03424145076292248
87.21149415728487,0.0329615516464614
88.26510309457696,0.033288124246833105
89.66156460739826,0.025435084767367725
90.71489762757024,0.028199020325659956
91.76461318185862,0.0197133406083783
93.16405067304937,0.022187594539547235
94.21349138124678,0.024575763462526837
95.60906506618451,0.024691807711472682
96.66172845298375,0.022070855690854912
98.06392980900324,0.01832321199072744
99.10932464881044,0.018437270218040144
100.50416781695907,0.017052848633165717
101.55628022034035,0.02284789405787462
102.95425301647478,0.022433382954022602
104.3520167581856,0.022912307977667325
105.40020240071355,0.026689654351701234
106.79760041000713,0.025050067722790902
107.84551180704604,0.021293784438591246
109.24254422744637,0.019818028979184773
110.29018148661683,0.021402605755216898
111.68684846156928,0.027005982039651294
112.73421169043229,0.025699366330004733
113.7779668862498,0.024866056614389124
115.17411256664145,0.030678439596423458
116.22457461282536,0.03436484733910011
117.62035467417212,0.028188864923076252
118.66705284830238,0.029860429510413188
120.06246795546137,0.029632192072118087
121.10889246762832,0.02868625632469799
122.50394276372238,0.03038483280586048
123.55009372123493,0.032887104138031
124.94477934930556,0.03032513187855694
125.99065685942111,0.027135365240333414
127.38497796243122,0.026315370614604698
128.77909082957137,0.029143504446838928
129.82453885319498,0.033746439053619
131.2182874197939,0.036599359591216345
132.2599785498176,0.0280938467352683
133.65684668039324,0.027217577415106366
134.70174846735523,0.02812852781809847
136.09476886112074,0.024270508992897826
137.1393976902762,0.024585809942996844
138.18390957025673,0.029276623052695173
139.57641018989776,0.029800178047719797
140.6171686620805,0.030528217363090363
141.66477145603056,0.02986268005968202
143.05675259240334,0.03080325619631189
144.10408143430638,0.02839687840541238
145.4922198022309,0.03573111306435344
146.5357967954053,0.035610278712480105
147.9270511434356,0.03166760064815281
148.97035569771617,0.03283462792757165
150.36124686501532,0.03879828342824842
151.40427908706863,0.04033159142541343
152.79480721582158,0.03455892618035432
153.83756721227346,0.034446240209044625
155.22773244459745,0.039796232474909855
156.27022032200057,0.04061241716784661
157.66002279993967,0.04010000974832837
158.70223866480063,0.04275596215833075
160.09167853032568,0.047770714781330784
161.13362248909417,0.03798685165287977
162.1719773845469,0.036186111628669644
163.56784408895345,0.037739164398122416
164.60592774920718,0.034782850563888155
165.64736702174145,0.03408240071915666
167.03577163341228,0.0349200268140932
168.0769393036882,0.042804640674458404
169.46498184985177,0.045717433051267894
170.50587802409945,0.045087764536589234
171.89355864635803,0.03614178974390959
172.9341834307642,0.03428807924347222
173.97469193772372,0.03225851086361906
175.3618557713359,0.033881995265617505
176.4020930400444,0.0370779540054911
177.78889529335152,0.03572643966543433
178.82886142984935,0.03350713758722152
180.21530224420965,0.030104189800688057
181.25499735448844,0.029826170641670605
182.64107687118704,0.024059120566373125
183.68050106117875,0.019190221673868264
185.06621942142755,0.019193207566627145
186.10537279700995,0.01828580146970335
187.14441014167429,0.022211160316635316
188.5296128089443,0.021636654668132225
189.56837949036154,0.019519941987164946
190.6070302056228,0.02438380388405414
191.9951789276157,0.020732033068591713
193.03009767078885,0.02325342538844377
194.41442432041936,0.02792308290926524
195.45253411694938,0.028616557156565747
196.4905280572995,0.026259020734610103
197.87433979056527,0.02044470856984697
198.91206347524425,0.02200628683242813
199.9496713683699,0.02241636002727066
201.332968472514,0.025204397173680285
202.3703062607133,0.02892641461912983
203.75324329526066,0.024215974630162992
204.79031108398848,0.02461915437454196
206.1763443746026,0.02925493536062727
207.2096860841657,0.03039241010468871
208.59535868688153,0.030591932483078243
209.63188640746995,0.03089068276652823
210.6648440215053,0.032170317565739646
212.04654759847017,0.03289371607339184
213.08269047455858,0.03314272387955669
214.12217105490274,0.03489674437263109
215.49990794686576,0.023663778977598107
216.53566580783595,0.02538310553978521
217.91649668383877,0.019595298700039225
218.95198516189618,0.02143995406838311
220.3324569307458,0.03035232940071336
221.3676761309713,0.03601132165441972
222.75123895775624,0.033517421921608906
223.7861886007184,0.03192686711603742
225.16249293483304,0.027397870828503798
226.19717389441507,0.035038917802248326
227.57656918192896,0.030969604948617706
228.61442902586674,0.031796529168761974
229.9900179187931,0.03312053285573714
231.0241610573911,0.03450144371348175
232.40628582930609,0.031095219973548395
233.4367137754031,0.027435729527047963
234.81503384023972,0.022468755460419713
235.85208473705163,0.03028619191879827
237.22660151372153,0.02745954991793392
238.2599387067586,0.024115876210428912
239.63754265475924,0.023951822458588595
240.6740547788121,0.02625847775948248
242.05130036655018,0.025384763933377723
243.08065792679096,0.021673556313119725
244.46098828080122,0.02363259039284422
245.49007850517611,0.02670982151607721
246.86660932390416,0.024726397819444457
247.90231407570798,0.01851776879489964
248.93446287752474,0.013829778159824715
250.30704281778563,0.0013736061634277007
251.3389240261111,0.005612124782677625
252.71458703928297,0.012277422920506834
253.7462003755558,0.006395479183709097
255.12494430469164,0.0
256.1528518640573,0.0038337359467645687
257.52780082986953,0.0007353924508822996
258.5588787348754,0.002659660850250702
259.5932783111749,0.012844634806002033
260.9642812311479,0.01231770080401595
261.9984124011107,0.014261243068032734
263.3724945472156,0.0185212460720213
264.402922463966,0.018319791977245887
265.7732140719617,0.022555995184936693
266.8068087425721,0.03038090623426801
268.1801780716401,0.027705858069451
269.20663869178213,0.032216231639304184
270.5830846081613,0.025533585502939243
271.6092790201242,0.023864194950280797
272.63879127216256,0.027959822744977856
274.01129629160573,0.03229607664135193
275.0405415934614,0.03772596673777564
276.41269074855404,0.03672478514712805
277.4450989410297,0.039078166559010405
278.81689186207234,0.04107300009480967
279.84217434605307,0.04215641734630473
281.2136121875178,0.04562527163078411
282.2420572615126,0.05155384746942254
283.27038809342815,0.05443106702315113
284.6447452631377,0.05247626018002698
285.6693825333993,0.05208126029363359
286.6973326958361,0.061879369822630155
288.06775533406625,0.06877827109519584
289.0988645755182,0.06947579298256358
290.4689316517926,0.07623591538141038
291.49634885170167,0.10524160905677016
292.862636983726,0.1251713800304794
293.89321207542986,0.16222718068180855
295.262569456259,0.18430168162232968
296.2860317272354,0.20141194605855053
297.31622553748264,0.24271153242331625
298.68165445615546,0.2767533874546153
299.70816000062376,0.28835397511094774
301.07665685576137,0.30866835733859355
302.10289661857297,0.33957458992855133
303.4744592696973,0.36265854975643447
304.49701325133645,0.3782969586081678
305.86480163058275,0.41029615578030143
306.89392897772564,0.42364927768871147
308.2579444872464,0.44117185822719
309.2868054773655,0.45008852789824444
310.650467977511,0.4547947432189477
311.67564564524383,0.45318412885309217
313.0423723417849,0.4704810764944106
314.06728474337757,0.4689160838257991
315.4370734998965,0.47534672900943775
316.46172035955766,0.4725518175317499
317.48625360940827,0.4721014952297232
318.8521212488341,0.4761415305657808
319.8729754437833,0.4695928367717929
320.8971305091683,0.4643371408828483
322.2624940004548,0.46497548050140836
323.2932097502845,0.45550519911096266
324.65139459710025,0.44346036499136393
325.6784319215434,0.4244599383202787
327.04308886434376,0.41284690397669255
328.06303823884696,0.4153885657151459
329.43075337793255,0.38796143623757
330.45043907306876,0.3818802114839455
331.4768316784952,0.37317972550225254
332.8406320181988,0.3739930472221852
333.86335007786374,0.367436966578197
334.88254635394776,0.3636935382076535
336.2492516805876,0.3518017046192506
337.27159218284874,0.34313277939848286
338.63112961534034,0.3330156676677656
339.65661306221375,0.32452032876613424
341.01920545231326,0.3229568455738334
342.041017725359,0.3052413205300653
343.40666344803986,0.3065180854591226
344.42480641106107,0.30850800203521184
345.446241628133,0.3121279418920158
346.80457526427915,0.3132832229360303
347.82915076004576,0.31894713380602857
349.187133590089,0.31988152059990527
350.2114444939156,0.31312709329132377
351.57247898955774,0.3091229458591117
352.59312306810455,0.31902253704994415
353.9504046935234,0.31817131411776467
354.9741867208604,0.32109076442062007
356.3345185269006,0.3275243843183702
357.3512354872302,0.33209153177421674
358.7146163555859,0.33229569898819755
359.73447021440387,0.3339368625415175
361.09409987488664,0.3297099283112577
362.11369053105864,0.31389514210274355
363.4695713755647,0.31213855810717966
364.4922968780066,0.30824169281946495
365.84782786611396,0.31873050981168644
366.87028949287503,0.32789596485606226
368.22886695388985,0.328204156346225
369.2442727947583,0.3306356228349488
370.2663576333814,0.3358802632823959
371.62103953377243,0.3613371167346768
372.6394661773976,0.35422255421163606
374.00058731944154,0.37156160313279063
375.0187509375495,0.3656747544059343
376.3727341881139,0.3513130060896569
377.3940284492784,0.3479936956310911
378.7510548943911,0.3340307932267967
379.7686935167648,0.33892889225059747
381.1219786578444,0.3301008480682374
382.13935530931525,0.3299260616148822
383.163400942467,0.3281159439267067
384.51279707278064,0.33316999765426775
385.5331889395018,0.3304879274444151
386.8890164215367,0.3332009481771224
387.9057559954478,0.33165244759327994
389.2578456328948,0.3271126233687112
390.274323582967,0.3233235832315742
391.62945290236956,0.3155323051612276
392.64905615469667,0.31408944311583603
393.66177279807846,0.31724037213334516
395.01640340386996,0.33000260625891564
396.03563144682016,0.33159100050545715
397.3865271641227,0.32615843759931734
398.74399445894676,0.3499861981747017
399.7594250546553,0.33478545406465093
401.10977408698403,0.3371603692603421
402.1249435638913,0.3333841459149029
403.4817118024538,0.31560657762598615
404.4932366749132,0.31533021812811285
405.84965558782375,0.32219940635901606
406.8643020095993,0.3232427286989942
408.2169897629852,0.32101201539507257
409.2313749952994,0.3231201965985912
410.249029044119,0.31696299612716206
411.5978387070075,0.32147683217861867
412.6118509864405,0.3392600258599099
413.9603140218307,0.3442641621523685
414.97744471470946,0.3469012466261779
416.32893924914504,0.33631644853954284
417.3390516240062,0.34096466329718156
418.6935765496222,0.3378416919295012
419.7068062971926,0.3621176760290282
420.7233012017554,0.3722609352527419
422.0671982429401,0.3732030419749598
423.08343205280073,0.3843707744483136
424.43035943665063,0.40663668320755314
425.44633187908073,0.41671342090460756
426.7962875076619,0.4235849820716132
427.8086240417804,0.45414123649377997
429.1582325392703,0.4692612380542313
430.1703087752825,0.4990723633825597
431.17890045523194,0.5069020475778064
432.53138631383973,0.5160876348699425
433.53971870617556,0.6248445092678164
437.92248559633504,0.6714364193547583
438.93696644313235,0.6954622431951331
440.28157057981576,0.7382062681171196
441.29579073512025,0.790594720220086
442.64678701320696,0.8248114305812383
443.6540089349054,0.8531982896612104
444.66448839711927,0.8811893568343145
446.0082536904416,0.9266616392726319
447.3551893085386,0.9591536404143288
448.3686279919995,0.9822190574536718
449.71185092254717,0.9801898607911307
450.7250293160956,0.9880320385500564
451.7347303316095,1.0
453.0808254815411,0.9954601992401974
454.09026721471065,0.9850918672534277
455.09959785744644,0.9339408959642301
456.44519927211434,0.8973734284661563
457.45427077514603,0.8768792005466453
458.46323124885515,0.838798351833896
459.80833919985463,0.8139987027996308
460.81367852247695,0.7958140520713476
461.82563118467357,0.7538199146883287
463.1702459433995,0.698223820210448
464.17521667566933,0.6790745403818985
465.52284728245917,0.6476329589172111
466.527560122077,0.6124636935227251
467.53888221479457,0.5930806613055785
468.88265916895523,0.5630709490205289
469.8903625900019,0.5476460755571644
470.89795520744326,0.51640228364258
472.2412397011126,0.43122042382471826
476.60891099627503,0.40601783098253574
477.60905302717384,0.40094683269046844
478.95806491358667,0.3780506584495777
479.96130561594595,0.34839761303298405
481.3032618176846,0.348194039965371
482.30624566039256,0.3378730282845094
483.31918138491864,0.33241007103875514
484.65393880289525,0.3087751864763441
485.6632618149755,0.30764719217143155
486.66912089246415,0.30235390660289346
488.0100944440653,0.29076004304547887
489.01569571757335,0.2720689157598564
490.35297426671355,0.2701400291945347
491.3616691652251,0.2627264556038247
492.7019555037848,0.2535633428958469
493.7070414665767,0.24533772304662876
494.71201705717544,0.24098462554438718
496.05181285265536,0.22463683200110524
497.0531821016643,0.2105261993074764
498.0611387934064,0.20470762109205076
499.4004443150627,0.19623653922913306
500.4047948065218,0.1907002059989319
501.74375729660704,0.18254968351345235
502.7478505638058,0.1743460181425114
504.08981645758274,0.1688696475604633
505.08696035837636,0.16343886381150574
506.42858311803025,0.15363068589254616
507.4321622330777,0.14865497683212905
508.77009641880886,0.15032713268663414
509.7767628290572,0.1506776916912081
511.1110102867035,0.1426137925005992
512.1107322760103,0.137901170221954
513.4513249518659,0.15025680962670537
514.4541335788238,0.14609084111541765
515.4568322084921,0.13422775464731593
516.7935926391008,0.1243190448924806
517.7960346787968,0.12125032318915893
519.1324530551044,0.11856495207910266
520.1346386033063,0.11414824557912523
521.4740550029334,0.11347866542168746
522.4726442117278,0.11316455335966318
523.8083788731778,0.11007385384517505
524.8100517336331,0.11020777283951126
526.1454447343963,0.11543124382977
527.1468613984962,0.11208197983239301
528.4819128696444,0.11471770276989458
529.4797364160519,0.10240841732045705
530.8177835082012,0.10566579955722698
531.8153519080212,0.09412080338890018
533.1530568792291,0.08347629352285232
534.1537055437219,0.08250803163422288
535.4877332117738,0.07818015570235755
536.4847916119179,0.08525069205410009
537.8218127347702,0.08938669940104434
538.8186162817254,0.08832457823907168
540.1586287974615,0.07553098330910957
541.1551772250617,0.07716809001615899
542.151616865502,0.07504595014104345
543.4878083058104,0.07276828511241272
544.4906564091385,0.07232818515031512
545.816512307392,0.07758063626356428
546.8191045559291,0.07816843432407576
548.1512826191205,0.07995168818392186
549.1502885422912,0.08105018135301044
550.4821263083832,0.07562261959120684
551.4808770576283,0.07625140045978669
552.8123746569962,0.07325186895139282
553.8108703300728,0.06687278840946612
555.1420278930244,0.0653059352796143
556.1402685876353,0.06415437580884645
557.4710862444128,0.0603854560089463
558.4723984949675,0.06493236233820154
559.4669486672631,0.061749319826899796
560.7972809695865,0.061664514214184694
561.7949028372459,0.06428830141514041
563.124895549416,0.06667461570696176
564.1222627732244,0.06885179977245372
565.1195208937953,0.06741994562169856
566.4490287026912,0.07340092027191221
567.4460323186578,0.06990843241608828
568.7752008530277,0.07087421122512275
569.7686277455149,0.06894726953141242
571.1007794514993,0.07196345932234953
572.0972743504473,0.06665948353558089
573.4224437408162,0.06974453080992886
574.4220054116928,0.07188092329917121
575.750156901338,0.07539668804075897
576.7461434725202,0.07301724538366094
578.0739562066524,0.08150866687181328
579.0696887598041,0.083325199112801
580.3971628680046,0.07536062828297248
581.3926415002891,0.07786312285515855
582.7164595141767,0.07804736673250394
583.7150019206115,0.07644775241734257
585.0417991654533,0.08447121812366612
586.0367702472963,0.08184105499622747
587.3632292545784,0.08060964566787795
588.3546311624314,0.07662364671156348
589.3525554901796,0.07478912244665052
590.6785315252627,0.08118734522945559
591.6728868175276,0.08279039256451363
592.6671335003929,0.0805477390455259
593.9926268270092,0.08018200574725172
594.9866201571211,0.07873979997954665
596.3117757446261,0.08587356192914422
597.3055158188149,0.08594008713105622
598.6303337962746,0.08087504139490025
599.6271321529753,0.0819498376369843
600.94830120774,0.07869557963302393
601.9415350603585,0.07779153488234417
603.2656782046824,0.07934045786870945
604.2586590915593,0.07870930573178485
605.5824650126542,0.07171852714686387
606.5718841170051,0.06951519935287634
607.8986618570877,0.06957396651969047
608.8878290314134,0.07779740387280945
610.2142689633075,0.07920395555626947
611.2064915325351,0.07697675907070571
612.1986058415873,0.07256724689420987
613.5212565462216,0.07839977907054448
614.513118317087,0.07855118969300873
615.5048718868144,0.07679653610359252
616.827041697508,0.0777048181297803
617.8185428667667,0.08316702010361136
619.140376207733,0.07403272221016267
620.1316250728624,0.07249128616374363
621.4498185696166,0.08526414125563883
622.4441187298161,0.0934429842654209
623.7652795165337,0.08732215986341302
624.7527217598513,0.09127703123398101
625.7433586472001,0.0887373868883759
627.0673412945855,0.08126292045511246
628.0544247452146,0.08085526494866528
629.0480024413362,0.08065732452035485
630.3682033263237,0.07616325702047128
631.35822808306,0.07469963037131182
632.6780932495827,0.06731533745236198
633.6678662654924,0.06658639570389444
634.6575314218638,0.07053308753267747
635.9769172126705,0.07710420478075154
636.9663307653534,0.08247772283846974
638.2853811485334,0.07583294115705369
639.2712461656514,0.07120721889185234
640.5932582968956,0.06762760844974619
641.5788727401166,0.06501295695440215
642.9005488814632,0.06541046141413871
643.8859128463055,0.057308715497320396
645.2072531258287,0.05879237018586812
646.1956612226097,0.0605523400822261
647.5133712534652,0.062416785543137496
648.8308899721986,0.0660461048062379
649.8189034877369,0.07016949727392766
650.8068094312157,0.07167483584415234
652.1238500518976,0.07249038414530866
653.1082130574446,0.06463282340089063
654.4282111690817,0.06500845516642902
655.4156153418272,0.06414487479033507
656.7319870623146,0.06394318715613484
657.7191404930359,0.06370463449579457
659.0351779545005,0.05784682003508364
660.0220807387021,0.06100734195357431
661.3377840684426,0.06178983005284918
662.3244363015724,0.061491430702608235
663.63980562682,0.060263285708453296
664.6262074042769,0.06454005854515417
665.9412428522085,0.06202183082705104
666.9273942693453,0.05807170004460514
668.2420959670646,0.056514207748842436
669.22471096014,0.06312276742577373
670.5423651937286,0.07260609299935701
671.5280161760943,0.06857036615837842
672.510275004037,0.0710667145916952
673.8274516622489,0.07493805709068625
674.8127454243906,0.07798586786090478
675.7979320583289,0.08076370223086808
677.1113476232459,0.0821776490972043
678.0962843593226,0.0827113591604947
679.4093667904721,0.08285587459207121
680.3940537237526,0.07701871865161884
681.3786336277848,0.07853726117309608
682.6912403733735,0.0946299774569144
683.6755706103407,0.11831073314144117
684.6597938762084,0.11346252816731744
685.9719251946775,0.09866109458977566
686.9526191942671,0.10273283578530294
688.2676976022705,0.1018296519716036
689.2514219001569,0.10482411850678718
690.562888054481,0.1040979269617077
691.5463630106553,0.10967106673950762
692.8574967725651,0.1018310039696594
693.8374452401873,0.097350480971075
695.1515239776593,0.09992396205956515
696.1345005347251,0.10399684793460467
697.4449698907918,0.10112752637140733
698.4276973903665,0.09389653591438078
699.7378347328769,0.09400817726861961
700.720313269603,0.10393198764104974
702.0301187247204,0.10965965760342353
703.0123483931948,0.10205134047858226
704.3218220870174,0.09596185981492772
705.3038029817822,0.09899830833058376
706.6129450403403,0.09369967253236423
707.5946772559029,0.08247290190655861
708.5763029235787,0.08625427338252924
709.8849714359725,0.09290681493744199
710.8663485593615,0.09084655159411831
712.1746857422982,0.0873313860983895
713.1558144157827,0.08025990155283835
714.4638203950813,0.0731131910256929
715.444700712998,0.07476552528725797
716.7523756144041,0.06965302574969137
717.7362762666859,0.06826915721964004
718.7135333588436,0.06819788740930408
720.0207355098463,0.06340922060858176
721.0010130709809,0.061072001184725014
721.9811843209479,0.06060215301541255
723.2879139778636,0.06432888299812912
724.2678372356846,0.06376597569613593
725.5742362991484,0.06217936439017128
726.553911658924,0.06307738344085126
727.8632451892826,0.06377245821050184
728.839407810171,0.06972994352629655
730.1451460629897,0.07781419743439186
731.1243259088055,0.07452213612501687
732.4297339443066,0.08131602735860134
733.4086661741078,0.08090481925191094
734.3874923115119,0.0776257306947081
735.6924288252383,0.0895463026962265
736.671007480776,0.09022828057605696
737.9756140812545,0.09704041845398927
738.950684420626,0.10403310056656169
740.2582221611005,0.11301257023991326
741.2363061343945,0.12248039709456927
742.5402532836034,0.12562443568022008
743.518090056433,0.13218666012605412
744.4958209148887,0.1312142494482887
745.7992973335548,0.13178104232790733
746.7767811253937,0.12927418675829516
748.079928184327,0.1252735234549613
749.0571650031833,0.12463563475741052
750.3599828272053,0.1320768150408711
751.3369727666649,0.1285062470515901
752.6427174667027,0.14137362552224525
753.6162046341369,0.1395816114606279
754.9183643625377,0.1386706573775905
755.8916060111649,0.1364629782412513
756.8712515883459,0.14069605947164257
758.1729415536836,0.1351130812054891
759.1490857593656,0.136030837266373
760.4504470417999,0.14584056820584745
761.4263447819873,0.14752123458320082
762.4021369226775,0.1542299169111917
763.7030288740111,0.15294767202791287
764.6785746825258,0.1567224838014238
765.979138253134,0.16105711111159296
766.9544378227389,0.15824745182767827
767.9296318899179,0.1559657727711392
769.2297265608593,0.16126541948997947
770.2046745222821,0.16910190630544755
771.5044411143236,0.16263972768158425
772.4791430631394,0.16365468942082015
773.4569880853869,0.16204621247121442
774.7530377297614,0.15716814160901313
775.7273883934928,0.14881836568389256
776.7016337087305,0.14519022495833495
778.0004636164726,0.15285462539830913
778.9744631849903,0.15307117315156502
779.9483574619513,0.1530345585260766
781.2467194071975,0.15605379072622028
782.2203680702398,0.15225872194309722
783.1939114986161,0.14819504157538407
784.491805734232,0.14809667920848837
785.465103681396,0.14753855719382813
786.4382964507441,0.14489957333397147
787.7357232294086,0.14140352175053386
788.7086706501531,0.1505910448212556
789.6815129498995,0.14744533933861298
790.9784725241095,0.14897518172404267
791.9510696077607,0.14104918460475416
792.9268030915792,0.13736667371979036
794.2200542492565,0.13555975176721685
795.1923011850076,0.13633629302643202
796.1644431132576,0.1309876771770708
797.4604690353239,0.11798430031002238
798.4323660122246,0.11208831647071331
799.4041580383144,0.11302758144346846
800.6997175123281,0.10800403445481992
801.6712647192952,0.10394457715064956
802.6459449977556,0.09923574829332492
803.9378003098327,0.08892911987983274
804.9089979356476,0.08775847919962047
806.2037650256914,0.08617098072158612
807.5015819965096,0.0889094796844672
808.4691590825216,0.09016388812034878
809.4398676116122,0.0886500906688815
810.7339826958682,0.08998752059223333
811.7076815204131,0.08644900118701723
812.6748062155958,0.08475624576424969
813.9684558829108,0.0847954274007558
814.9385710053868,0.08291249088103061
816.2318950302131,0.0801240649509247
817.2049986950968,0.08047031663822315
818.4947644722189,0.0776414971640183
819.4643913153669,0.08131956199588906
820.7602958738072,0.07361673666823751
821.7264472657051,0.07668401679042101
822.6989563164307,0.07615944792696926
823.987934032858,0.07242663116125296
824.9569684608347,0.06523235916536507
826.2488518316277,0.05845836898989805
827.217642481736,0.06281289295533674
828.5124295400353,0.0581987439511641
829.4809761562029,0.057320981154061555
830.7689813826706,0.06519087589011895
831.7405122563082,0.06824937773153764
833.0281935640114,0.0649213786605808
833.996253432216,0.06521466201463295
835.2868376350933,0.06853126002103209
836.2546540930716,0.06704259913447237
837.5449138101819,0.062417633743078786
838.5124869497197,0.05652358935169886
839.802422303426,0.06436631025389573
840.7697522162794,0.06272739505388428
842.0593633288715,0.05200463755290956
843.0264501067396,0.05028345076950759
844.3157371004615,0.051628129582317245
845.282580835,0.0477805472467448
846.2493204361535,0.043012798155476394
847.5381446148406,0.03811503349885032
848.5046413035196,0.04166872605386611
849.7963626790067,0.04488949150605274
850.7593955276908,0.049176803995091035
852.04757218388,0.04573415227413556
853.0135833221923,0.04561061861352862
854.3014364001107,0.03901291396539341
855.2672049004414,0.04369588495581755
856.557953114479,0.03736187870673923
857.520260475744,0.019435323992657023
858.4889004086151,0.019812745140763744
859.7759676992454,0.023336416139224075
860.7379298784161,0.033860569111885536
862.0246744702207,0.029622471164087855
862.9928280465613,0.027242693403767945
864.279249138098,0.02611501146122995
865.2407283742754,0.02215191765643914
866.5268270099697,0.017769009076355955
867.491279926428,0.02199910398611669
868.7770557664585,0.02636165066015957
869.7412666317406,0.02675106838048224
870.7085873058145,0.029880680718802958
871.9906887028305,0.03216191666974123
872.957766649533,0.026155251594840084
874.239546352215,0.025531122752264917
875.2031697581544,0.02917364736697462
876.4878397923056,0.029959840322373428
877.4512214592594,0.031627465378604835
878.7355692354025,0.03394642408435369
879.7019195479086,0.03729056600911518
880.6649556861271,0.04146216386560726
881.9456333555007,0.04795968538536859
882.9084283206329,0.047774962771059096
883.8743286043797,0.04681181961959301
885.1545475126318,0.04408319139880199
886.1202056034023,0.041750963584640845
887.4065185932088,0.044501409851611086
888.3623123246256,0.045598685112129375
889.648303301424,0.041803723446780884
890.6070641632937,0.03822874574849735
891.8895268610207,0.03281072114542294
892.8512533370027,0.0317296479160766
893.8128765052144,0.030085295641885033
895.0948800572859,0.02670977827361338
896.0562622387584,0.026106320939686487
897.3379445355653,0.02335810437797844
898.2990858208705,0.02389076738315875
899.5836501561572,0.023647989463314763
900.544550291887,0.023741842401417426
901.8255899818223,0.02008857509110704
902.7830473757953,0.017214198855587143
903.7468056873576,0.013824354108847496
905.0241857708289,0.011252053813389992
905.9845018134495,0.010122102352406662
906.9447147754727,0.0055704767518557205
908.2280384854242,0.002227924814888272
909.1880106471397,0.0034705066995302123
910.4678132708123,0.006800380944064502
911.4243461311991,0.012208893275873121
912.3871738748448,0.013378629764167978
913.6665187805285,0.0136182132679683
914.6227095608726,0.01284205306430318
915.90173466747,0.011690082618609572
916.8608834344503,0.014102266929006207
918.1427849378463,0.014154686348584074
919.0984971143342,0.011444469428974664
920.3800778015186,0.01955620675799656
921.3387462013532,0.01507328855082887
922.613615868579,0.01985574256132506
923.5752393250908,0.022640382684382534
924.8529841500376,0.029080108252122906
925.8079790942109,0.021973493417655372
927.0885980550262,0.02491787947013902
928.0433541011731,0.026211407438201554
929.0043934333047,0.023351066505635943
930.2813621590795,0.018848768439840728
931.2389689298634,0.019347208612049454
932.5124268949891,0.025837613797821988
933.7888942717284,0.023861120163351117
934.7461251012635,0.021068205963493652
935.7064436025023,0.018513202214848878
936.9824545933794,0.01686810068550884
937.9361537393507,0.009511965449878368
939.2150351830535,0.010607162874384289
940.1684959170329,0.010422116773735647
941.443869471913,0.010648990554835584
942.4034679529414,0.009499585837618054
943.6785222859834,0.008267374359421304
944.6346935314547,0.009185304755283792
945.9094292176192,0.009404138717092942
946.8621752517741,0.009039658648305547
948.139778681446,0.007105698414852067
949.095472135741,0.006397262716113249
950.3663858663334,0.006142753752179933
951.3218409003478,0.005086172308983582
952.5956218168558,0.012890423594310078
