unconvertedTime, unconvertedIntensity
-998.7275653486078,0.045208807077131076
-995.2013587933325,0.04650118955307246
-993.6345590869474,0.04667032850244093
-992.4596220892232,0.04797678017589786
-991.2848245913746,0.04738138919302245
-989.7186448844459,0.045953904555288194
-988.5441727897022,0.04722567117766407
-987.3698401120497,0.04226393597021374
-985.8042800366372,0.039391499048987734
-984.6302725689989,0.04170607400304068
-983.4564044357323,0.041962947424374064
-981.8914636241914,0.04040277184894877
-980.7179205079998,0.040051084258237835
-979.5445166435233,0.04410458428987021
-977.9801947284961,0.047882856115453294
-976.8071156883126,0.045617120145355905
-975.2432267824262,0.04936532030432593
-974.0704724316743,0.0473649362933405
-972.8978571922739,0.04413519692751767
-971.3306786922831,0.04223436362641751
-970.1622958165665,0.04164384618272881
-968.9901441029442,0.03827322921395957
-967.427491375836,0.04104103737071187
-966.2556639667455,0.04015100324179147
-965.0839755041103,0.04071832938206564
-963.5219403168239,0.045334576138352164
-962.3505759665023,0.041269557330904906
-960.788972839303,0.04531670180643915
-959.6179324668268,0.04659248914152564
-958.4470309008543,0.04532289106655992
-956.8860446914593,0.047991991013178636
-955.7154669113688,0.04921025761426077
-954.1549123269489,0.04491685298309977
-952.984658198451,0.040075696027845685
-951.4245350600097,0.040700469275944534
-950.2546044488968,0.04323283493326678
-949.084812447025,0.04314720469699671
-947.5253053496723,0.041127418826647104
-946.355836673585,0.038858070426051355
-945.1865065246596,0.0383411125032634
-943.6276151035804,0.0383391461865248
-942.4586080889884,0.039318838979738
-941.289739519541,0.03988961945687225
-939.7314634102183,0.036336263285412784
-938.562917783805,0.03777906326249548
-937.394510520584,0.04095381614724662
-935.8368493587831,0.04055343210132235
-934.6687648474514,0.04306298660825061
-933.5008186174223,0.04365060561204931
-931.9437720391952,0.040964669038167124
-930.7761483700597,0.03278192675085022
-929.6086629004019,0.03147855684154494
-928.0522305420911,0.03148849940716727
-926.885067442483,0.029585413911772735
-925.718042460593,0.030473201979058208
-924.1622239588253,0.03446964058053832
-922.9955211562899,0.03138574110223893
-921.440132138049,0.03699693978916577
-920.2737513814678,0.03877320711992874
-918.7187916689417,0.03716017832248396
-917.5488461928287,0.037850089032354886
-915.9982022404622,0.03836597721880178
-914.8324651759009,0.03781462262233273
-913.6668659760131,0.034630616354019206
-912.1129481233904,0.034470207888317235
-910.9476705126583,0.03719619871371667
-909.394181356846,0.03331083346853256
-908.2292252021919,0.04007022205449353
-906.6761645658148,0.04334040750759297
-905.5115297342447,0.03798873120383311
-903.9588974400168,0.036663143554689984
-902.7945837986051,0.043873476063499665
-901.6304077694458,0.040888386871060924
-900.0783870852398,0.04078896869191332
-898.9145320564736,0.043018522071242175
-897.7508145586609,0.04665522529121669
-896.1994051231612,0.04549537668082959
-895.0360084361282,0.04269514561928016
-893.4811495116105,0.0340022004574512
-891.9342891809863,0.03688647880336458
-890.7713963572103,0.03644532632350502
-889.6086408938833,0.04261139538862705
-888.0585139058446,0.036570787101707684
-886.896078855585,0.038956387522926614
-885.7337810846733,0.03677633237058859
-884.1842642270703,0.03843963867233584
-883.0222866800707,0.03860333608541113
-881.8604463313884,0.04159458582483402
-880.311539244071,0.04034745688189517
-879.1461474252221,0.038058748301704484
-877.9847646858078,0.0367189487809236
-876.4403380569669,0.03881702798848573
-875.2792747065881,0.03938485381767252
-874.1183483926501,0.041615049877501656
-872.5706597665858,0.03851142110633512
-871.406184650174,0.03770913589753713
-869.858922754511,0.034856141397527525
-868.7025034744629,0.04082747624989636
-867.1556669160067,0.04346834291929012
-865.9918328478825,0.04301824608250554
-864.4454226675025,0.041454068027223186
-863.2896399133721,0.04450532692659361
-862.12626341285,0.04360648351388648
-860.5804611700308,0.0524113257688454
-859.4251327555643,0.05250829483666545
-858.2660768439808,0.052394171594431035
-856.7170188891668,0.05099638252020709
-855.5582823182418,0.048281528188763426
-854.3996823720345,0.04638680514205516
-852.851233765003,0.046062319942878474
-851.6968136801979,0.04311651898183909
-850.1565111831304,0.04369384193783802
-848.9985480445681,0.047861123218984634
-847.8368622000027,0.04832022183080597
-846.2971647993741,0.04453042691051143
-845.1396565268367,0.04614131090026247
-843.9784269837012,0.045269540716174755
-842.4354772509614,0.049220346538838056
-841.2784240309452,0.05082037665752345
-839.7358984644956,0.043874408951391095
-838.5830188610994,0.04385950167213943
-837.0370617285616,0.0447447846435964
-835.8844989935042,0.04468999888584381
-834.3389667372518,0.04769208324487252
-833.1867207399084,0.04788658952212455
-832.030757008732,0.04926916299460601
-830.4896837946349,0.05245007812485757
-829.3301857473218,0.05006036182614473
-827.7933878521798,0.05047272677191066
-826.6342083421911,0.048112117765109756
-825.0939823436696,0.049464426722202075
-823.9389715032869,0.05275052426765128
-822.3991685484754,0.05210953026183653
-821.2483236784798,0.0476805000627749
-820.0937655128464,0.04857519630946877
-818.5545660000382,0.05557318422494138
-817.3964776220737,0.0553100897456237
-816.2462195611436,0.05707817376217936
-814.7037775521442,0.05548492906279793
-813.549989544927,0.05020430541060455
-812.3963372881757,0.04914384484268633
-810.8621900840528,0.04098849138143675
-809.7050098063407,0.037108396183217374
-808.5518098781556,0.03720945176129038
-807.0182641473609,0.03986935424020552
-805.8615375192857,0.042524390564051634
-804.7087896536905,0.04642047916481703
-803.1720033773468,0.044876897393507746
-802.0195717974239,0.04375859848521657
-800.8711164904793,0.04165699653831808
-799.334931883848,0.03947288760091492
-798.1791117551138,0.03747312844718513
-797.0272672176145,0.04386187527012788
-795.4955237860205,0.04027544785478841
-794.343994711303,0.038760706391570615
-792.8088331551203,0.04113982466801993
-791.6576198646314,0.04548301554483893
-790.1190427173586,0.04759169463660887
-788.9681455320604,0.04345508964085668
-787.4376618201279,0.0414761908442303
-786.283244660896,0.0432024477693555
-785.13663278202,0.042532766122366804
-783.5952458020882,0.04566937353890846
-782.4489486601044,0.04979218467039013
-781.2989526288246,0.04976728481477635
-779.7696672056856,0.04692352013976348
-778.6199858781512,0.04501395737418211
-777.4666079817492,0.0503563374061346
-775.9340901800418,0.06365225729661521
-774.7848592977712,0.06404782501729515
-773.6357633625211,0.06346667882368354
-772.1038453253686,0.05938120962123942
-770.9588932205443,0.059934779625497245
-769.8102464875581,0.057526576460759184
-768.278927263706,0.057914563249582086
-767.130595130135,0.06269501773135797
-765.9785706862069,0.06031301034487766
-764.4516776226178,0.058338184341622974
-763.3037946926227,0.05810736788940802
-761.7734936635846,0.06260419108722183
-760.6221000156578,0.053866381715277696
-759.0922185465578,0.046891334917840075
-757.948788464126,0.04749679236097604
-756.4155018277618,0.05053651709060148
-755.2723847261317,0.05358732490690375
-754.1255788099294,0.05433446103403779
-752.5928916408183,0.053404460306966356
-751.4464000163781,0.054366863772917134
-750.3038638239728,0.056383476230940144
-748.7717757706248,0.05325906625184784
-747.6257322703503,0.05475872624592739
-746.4836426299256,0.05146374754521022
-744.9521533411295,0.050495406900565795
-743.8065577023323,0.04901400319292951
-742.6610963707841,0.05460570634516758
-741.1378408615776,0.05100604955476601
-739.9926923743112,0.05182753984222355
-738.462220179983,0.05524894396366761
-737.3173853034235,0.0494165980962224
-735.7949628086985,0.04969154050097372
-734.6466256698243,0.053175323908092646
-733.1246194261118,0.05508445993255886
-731.976596236774,0.056830049092322234
-730.8325213648984,0.05897034549372932
-729.3111094694302,0.05878524137574468
-728.1635345561359,0.05783170833666665
-727.0199063923714,0.05815857608786223
-725.4990884970669,0.055491401945227066
-724.3557724269394,0.05119511845687184
-723.2125902633915,0.0560380017556552
-721.6885556371336,0.05214164733529136
-720.5418764885977,0.04907318208302097
-719.0182588480242,0.047987739438520714
-717.8795100184196,0.047298411853027356
-716.7370862146827,0.04592485616405461
-715.2102552663534,0.049041641092034266
-714.0681439547872,0.05137504903307827
-712.9299727082135,0.05009358065530969
-711.4037374455378,0.05209186160602511
-710.2620716926684,0.05173146187002766
-708.7400585330934,0.0468677530488457
-707.598704516199,0.048373862230079424
-706.0771069194662,0.04694829786936924
-704.9360645108768,0.04469334006693098
-703.4186849664322,0.04527565011862578
-702.2779535936725,0.04622846811463931
-701.1335539037573,0.041374013177287554
-699.6129648227835,0.0422238982555507
-698.472678646158,0.04623939840004561
-697.3325258441887,0.05199788182844411
-695.812529539477,0.05830361594112891
-694.672687854051,0.05736870174502585
-693.5329794653054,0.05534433285480792
-692.0135755902933,0.05688243183314231
-690.8779759064306,0.0584053263794674
-689.7349139009111,0.054431314947120425
-688.2161021093126,0.05178346309166615
-687.0809449173806,0.04942198646068065
-685.93832828549,0.052480736953683764
-684.4201082312874,0.056675650262055774
-683.281598461182,0.04869243529828488
-681.7637924174178,0.046431342213314
-680.6255930916395,0.045128168259198215
-679.1119940747055,0.0445162971536826
-677.970311880577,0.049102286409252106
-676.8325558264687,0.05214484726376991
-675.3195462404882,0.05659493981333087
-674.1820998795364,0.05159420081734976
-672.6657114247269,0.05096056772314505
-671.5285750732801,0.053702445649771995
-670.3915715442566,0.05333625429924158
-668.8719842117935,0.055273626913541964
-667.73529095379,0.05448933073934274
-666.219906431001,0.05198561381903812
-665.0797351513996,0.057437758083855386
-663.5723383382011,0.05531875761315011
-662.4324772219287,0.05524306964248987
-661.2965358770864,0.05193315284195797
-659.7859393618719,0.05213289370717813
-658.6503069695948,0.052376325025758695
-657.1325520149114,0.051387929007335166
-655.9972293326149,0.048835391567998994
-654.4874554707526,0.045969532412923564
-653.3524414886759,0.04404247177590077
-651.8355129732324,0.04850069908815721
-650.6970263212069,0.04695950902814115
-649.1880750277603,0.05661692946135151
-648.0574604910099,0.05459599213760164
-646.9194160989175,0.05542419403218744
-645.4072708675102,0.05596889360659357
-644.2733162835459,0.052504527791904676
-642.7615825803801,0.05394533137424995
-641.6317151799697,0.05539415387709919
-640.1203922495272,0.05284575072677861
-638.9832766931486,0.05698201773316894
-637.4723655426344,0.06570522862463518
-636.3393363304447,0.06002512376363451
-635.2064392217493,0.05854113321134767
-633.6923396820258,0.06115091599448061
-632.5635262408437,0.06405669450885801
-631.0573874925159,0.06674652067882193
-629.9251061214707,0.06830924560285073
-628.4118294496116,0.06469479979464601
-627.2798564188148,0.05699430803249419
-626.1480153068483,0.05570925823774987
-624.6390989914335,0.053791479139351284
-623.5075656003946,0.05419927874851018
-622.376164051346,0.05013817028414444
-620.871604234039,0.05025447905131625
-619.7367396929633,0.045673859992597064
-618.6057774508171,0.0454276994987301
-617.1018017927502,0.04662255576901734
-615.9711464742094,0.050232858029208544
-614.4600428487529,0.058383530640364126
-613.3296952065385,0.05901321525192078
-611.8227697782041,0.05876203042094393
-610.6964958312906,0.05333693148404276
-609.5628202991758,0.0520520606292782
-608.0564796760247,0.05101326242654001
-606.9306427820468,0.04720676036709302
-605.7974071494566,0.04790751736765998
-604.2954150901214,0.04844267729997448
-603.1662508957372,0.0486771470524881
-601.6571399995615,0.04949158809378084
-600.528282873093,0.055452972560579225
-599.0233443942225,0.05624441804478719
-597.8985553899141,0.05314377346844489
-596.76637447213,0.05512681452446629
-595.2620196422986,0.053598491153599236
-594.1376668269386,0.05227000025889904
-592.6337197662002,0.051806249895416094
-591.5021534188712,0.05178993359958877
-590.3782365387808,0.05429192280319127
-588.8748725504917,0.061404566054114616
-587.7437448757419,0.06303863754414604
-586.2407894191032,0.061330451247178445
-585.1137257614477,0.0583067214478538
-583.6149341662385,0.061675170483119095
-582.4844202046786,0.06176624756863667
-580.9822801475457,0.05759151877180769
-579.8558279150774,0.05511450762236945
-578.7295066375648,0.05635895574509346
-577.2279486024491,0.05965217248648736
-576.1019327976951,0.06298115366983624
-574.6007819767452,0.06255218804420219
-573.4750715205003,0.060870798588343836
-572.3494918898764,0.05387281327545099
-570.8489225161569,0.05761816746168267
-569.727398754314,0.05298154526608058
-568.5985043467757,0.04878394411966189
-567.1022657634592,0.04999068539727497
-565.9774266118269,0.05155389882091749
-564.4740956780838,0.05366238971652855
-563.3495618319339,0.050689519298800306
-561.850386554026,0.05357734430940291
-560.7261574538128,0.056770003459024436
-559.2273884212384,0.05833131842041564
-558.1034639430999,0.05745005666299292
-556.9796699793839,0.05754588250916325
-555.4814810108987,0.05393272097275021
-554.3617362408073,0.054827066706421596
-553.2346324126238,0.05615961375034571
-551.7370231715452,0.05615169494507271
-550.6177116597739,0.06505861914673973
-549.1205074483672,0.06679073588254007
-547.994014061921,0.0687550638191938
-546.8751355570598,0.06804980720791778
-545.3747692291968,0.06520803162513573
-544.2561936796906,0.06917043615771824
-542.752493315913,0.07072821087430096
-541.6342210312608,0.06875791278789004
-540.5123386700698,0.0642349481949567
-539.0166979872665,0.0587438323016412
-537.8951192949061,0.05472236932678158
-536.3998834216762,0.059848509989798244
-535.2786082748617,0.0636228921597736
-534.1537262484137,0.06716397036040248
-532.6628053224034,0.059464098759851695
-531.541963598369,0.057874032096536764
-530.4249873421002,0.05761032730191956
-528.93090658498,0.05939428249384843
-527.8104975994205,0.06367569541550001
-526.682750425056,0.06113578080040653
-525.1929816348246,0.05885886435760737
-524.0730060027728,0.056375484662716024
-522.5836395690721,0.05856019698327242
-521.4602343725701,0.06146896537102402
-519.9675392575175,0.06147274308458773
-518.8481692926938,0.061329994887533816
-517.3558777920119,0.06374290134119844
-516.2368104765815,0.06569674820582994
-515.1178728304623,0.06580062885521641
-513.62615763783,0.07204448039608863
-512.5075224657967,0.07094663159357437
-511.38901688797193,0.06704952359146417
-509.89787766960967,0.0720215305245297
-508.7796743907043,0.07133565607452273
-507.66160063096453,0.0748414039987687
-506.17103705334716,0.08027485332543242
-505.0532654174932,0.08263977900928994
-503.93562322582136,0.08508608090571532
-502.44935963951053,0.09247960478423421
-501.3282947129974,0.09298586845094542
-500.2148076609396,0.09566223833535932
-498.7216705438911,0.10291344611239765
-497.6047614446905,0.09625938993264557
-496.115750433135,0.09246602438302837
-494.6269692250523,0.09359547709910773
-493.5105340955163,0.09702351295537308
-492.39422817807537,0.10594915296949237
-490.9060212459764,0.11840701946696136
-489.7937365367066,0.1231821306611905
-488.6778607338549,0.12480780969996484
-487.18650837543476,0.12423145384132335
-486.07093423632267,0.1312234472330427
-484.95548915986467,0.13352520478805416
-483.46471242233224,0.14138707521435367
-482.3532857659951,0.1500672546834028
-480.8666277203655,0.15502147293421858
-479.75550056967165,0.15616905473054238
-478.26552776307096,0.16464908655771474
-477.15470042518024,0.17224516618895175
-476.03657211736703,0.1790952331182963
-474.55088805633756,0.18063603286348917
-473.436775316852,0.19099350693222442
-471.95520495284933,0.2000471974148383
-470.8413923040452,0.20009268004093705
-469.3565090572755,0.2042303687342996
-468.2392853147115,0.2021394263683847
-466.7548030902181,0.20431454940175245
-465.6415915457962,0.20374691302070938
-464.15750960942256,0.207740836509722
-463.0445982203765,0.21260984448907544
-461.560916410243,0.21552572664408717
-460.4483050551909,0.20883925003014847
-459.3395303115086,0.2068112989894973
-457.8527117671271,0.2026111131374729
-456.7442358847007,0.19757924811896396
-455.6284743507759,0.19542875466435067
-454.1459348672268,0.18610601189920573
-453.03418008391907,0.18016259945493954
-451.92255370104834,0.17802495779620894
-450.44058488613365,0.17218301517461695
-449.32925801780203,0.15990345764967848
-448.2217632577855,0.15412975574423776
-446.7403642118912,0.14498228847994973
-445.6257617997016,0.1390069131572256
-444.14476236554475,0.13873105817427728
-443.0341623858877,0.13498927640476432
-441.55356183207914,0.1379267966025128
-440.4469617423054,0.13094523131253266
-439.3367885840088,0.12443383992078844
-437.8530572168643,0.1271818941630615
-436.74318341295657,0.12270017306909531
-435.6371366234839,0.1213810882319299
-434.15397590057387,0.1201275919596282
-433.0445289262204,0.12143355113016004
-431.5654654023633,0.12609622582178154
-430.460014010797,0.12904706453241424
-428.97765163690946,0.12498354989901411
-427.8688018104053,0.12480884134763257
-426.3905343229512,0.12299854318216664
-425.2819828895905,0.12399788157833475
-423.8041131793659,0.11801206480739365
-422.6958600187262,0.11636747289402934
-421.58773465239756,0.11915193740634393
-420.11043291690925,0.11326165907989248
-419.0026056513689,0.11187142187646235
-417.5257013034017,0.1199710853028978
-416.4181720183683,0.11596079396496985
-414.9453558824481,0.1167667262673421
-413.8344334728719,0.11280297341033871
-412.35832341906803,0.11208431399797586
-411.251389734497,0.11025719668605834
-410.1445836160857,0.10896352863587774
-408.66904052301254,0.10981927497824946
-407.56253197323593,0.11292456020492662
-406.09107314181347,0.11852005914478767
-404.9811744572169,0.1197754966237491
-403.50642456055783,0.11664716517505413
-402.4041969557753,0.11502228014301713
-401.2947244056564,0.1174132512534003
-399.82054068634864,0.12211265937016537
-398.7150514613686,0.12648553519617378
-397.2412638722299,0.12579841523729704
-396.1360716849997,0.12076415151223359
-395.0310067630196,0.11740725640899372
-393.5614675701094,0.12062358549708613
-392.4530167419933,0.12426371407022248
-390.9801905187943,0.13105924781355346
-389.87571921073635,0.12954093534151634
-388.7713750434324,0.13038606644873818
-387.29911389026466,0.1309410320473705
-386.195066299358,0.12661309477856023
-385.09114577605425,0.12385785101200066
-383.61944936777905,0.12134289111997415
-382.5158252502436,0.1203407822707561
-381.4123281272087,0.12063167137434805
-379.94119613894486,0.12043074514379536
-378.8416723766319,0.11933782347192048
-377.36725816375395,0.11608631333599057
-376.2643533919901,0.11906423646376812
-374.7940110464156,0.12180532047368611
-373.6914022714401,0.12013873398681828
-372.58892031575806,0.11856299335685112
-371.11914161149383,0.11717982258226575
-370.02062922562624,0.11743124730364385
-368.5475711342459,0.1222877185403417
-367.442007956535,0.12107752949787715
-365.97669056196435,0.11788130108138821
-364.87509572901433,0.11932143095189454
-363.40649961705003,0.12042769217104606
-362.305200253741,0.1198563308920331
-360.83699802205024,0.11141005263131101
-359.7359940095266,0.11865715607473763
-358.63511653953765,0.11750614471365936
-357.1711455382709,0.11649116944577836
-356.0668944302403,0.11949213078994045
-354.9664386111871,0.11927625528408951
-353.4993608789725,0.11647181814962468
-352.39920007145236,0.10877074826452698
-350.93251560886415,0.10437340048857041
-349.82898368583704,0.10607595989795722
-348.7292445387394,0.10251060649804329
-347.2704522302825,0.1036268983534049
-346.1673423583159,0.10230811158435647
-345.06802378751723,0.09978037412575523
-343.6024620814961,0.092942348468539
-342.50343806506856,0.08470319143242494
-341.04193166218937,0.09045952445854324
-339.93953943885214,0.08993021780356746
-338.47476289551844,0.08123835496856346
-337.3763276327813,0.07966439299176585
-336.27801847000467,0.08167700441369118
-334.8138023709184,0.0814335264437569
-333.7157873569346,0.08313665852922601
-332.61789837054897,0.0818967628254191
-331.1542423941222,0.07639181175677309
-330.0566473877597,0.07494622625936899
-328.95917833669273,0.07347254698414378
-327.49608216158424,0.07411025424018153
-326.4025639635815,0.06895727920089893
-324.9362024166513,0.06321530958083926
-323.83932087037687,0.059053374997517144
-322.3770078777282,0.05433436644864696
-321.2804199069611,0.05785116918666203
-319.8184982697446,0.06665549506464456
-318.7185496518518,0.06720856967438363
-317.62603497503017,0.06767323048459355
-316.16832527298715,0.06624471666583291
-315.06879665234254,0.07201260364585223
-313.60782479592103,0.07479969468785674
-312.51224247546685,0.0721924630023172
-311.4131344516668,0.06632740391427913
-309.95272141563703,0.05498823176073232
-308.8612084621399,0.05540057826155473
-307.76617029142346,0.05388006765851295
-306.306314639654,0.04819688267215881
-305.21156930474785,0.05061847165090187
-304.11694943494234,0.05421045859888139
-302.65765140586007,0.05439061905390064
-301.56332420410087,0.05127861732191786
-300.1044163208227,0.057399583360260194
-299.0103816697396,0.06276700516412884
-297.55186377583414,0.06285011508528374
-296.4581215581327,0.0631239386888442
-294.999993497239,0.0642378318161411
-293.90654359568714,0.06371905928528414
-292.8132189366139,0.06494211952363001
-291.35564750895907,0.06712384733320112
-290.2626149986671,0.06229311371428232
-288.8054330246536,0.05815428624043794
-287.71269254605727,0.062066179624717686
-286.25589986961415,0.06121540368085562
-285.1634513056982,0.061849202903847836
-284.0711278122602,0.058970796508805115
-282.61489100464195,0.0608998908540287
-281.5228592588224,0.060147472943405396
-280.06701137010066,0.05090897920724084
-278.9752712550252,0.05279526732940752
-277.8872945984832,0.05788042677673382
-276.4320014828048,0.05824946351223658
-275.3370398259487,0.06131699956654828
-273.88213580615206,0.05929235964573769
-272.79110345100145,0.05968023926106048
-271.33658781633505,0.055709340314755745
-270.24584669171423,0.060957376762809656
-269.15523034447915,0.061262989665672264
-267.70126927599307,0.06275947974027128
-266.6109439927462,0.06644228803055721
-265.15737093189557,0.06906159177087058
-264.07096983683664,0.071261668618487
-262.61415138762044,0.07109907458673492
-261.5244078829035,0.07125785865575823
-260.4347889844283,0.06977291720887456
-258.98215758146216,0.0718112841491189
-257.8928293477963,0.06961335559917281
-256.8036256491563,0.06718248885623321
-255.3515477352156,0.0698274709396829
-254.26263453527164,0.07079848999293403
-253.17384579919195,0.06730600541513428
-251.72232105799597,0.06902925311162675
-250.6338226546318,0.07069539243628636
-249.54544864402177,0.07150120649053973
-248.09447675953098,0.06820311820810993
-247.00639291578068,0.05882900063440994
-245.91843339372588,0.05714528650229022
-244.4680140501447,0.05880863747903134
-243.3803445292185,0.06466525964724314
-242.29279925899152,0.0692672801878324
-240.8429321407602,0.06347071666378791
-239.75567670605807,0.05944513625759001
-238.3061959579456,0.05704142505061474
-237.2156072314466,0.05582810625039627
-235.7701357104939,0.05319816025206487
-234.6834595993438,0.05476252439610349
-233.23112963348643,0.05316175275455027
-232.14836450529145,0.05420455091322839
-231.06210191324638,0.057190709577816815
-229.6103245740021,0.055287191077292006
-228.52797142173196,0.056977511238855735
-227.44212211279634,0.06169946896348501
-225.99451582445909,0.05926705704025254
-224.90895567338126,0.05980286696628004
-223.46173485185437,0.05718368448259982
-222.37646374314517,0.06328385599685565
-220.9296282344828,0.07045673210138192
-219.84464605272345,0.06936799556265029
-218.7597876614737,0.07127205812953015
-217.3135023328843,0.06362756892705489
-216.22893270379652,0.061582860425088315
-215.14448679462328,0.064963742263733
-213.69875133234413,0.06715163106229151
-212.61459402066964,0.06546625404198408
-211.1692432782479,0.06571395614664516
-210.0853744488784,0.0626490357020804
-209.0016292195378,0.06858729735800922
-207.5568278105816,0.06273357064591346
-206.4733708990969,0.06176163472940126
-205.39003751718963,0.05809062703604706
-203.94578512858138,0.06023846016553496
-202.8627399002056,0.060291078144882805
-201.7762085982066,0.05292075234883301
-200.33611444987065,0.0560787524880617
-199.2498720970856,0.05700642158023159
-198.1709702789775,0.0547388519619687
-196.72420737923977,0.051942355247246504
-195.6455924268885,0.055319501298773104
-194.56349317966152,0.06261724278724787
-193.11727973239678,0.06792812151876898
-192.0390743898482,0.06835348520543542
-190.95738605223593,0.057082729535614746
-189.51532661859787,0.06241315892052794
-188.43392577846365,0.06690952199111663
-186.99224959839174,0.06810888464050521
-185.91113614113817,0.07018812242541206
-184.46624010343106,0.07227586728946704
-183.38901687294938,0.07073053772124459
-181.9481067417988,0.07239356030353078
-180.8639661156949,0.07170007796494375
-179.78715170257524,0.07127246476029267
-178.34318774114303,0.06824884538156503
-177.2666593617201,0.07022972826115734
-176.18305349427933,0.07256694354261171
-174.74683647459352,0.06965847485632069
-173.667117248834,0.06779169520774413
-172.22408446206495,0.07273134987338857
-171.14825026160926,0.0770822307089201
-169.70560063791345,0.06950129113356891
-168.6300520807089,0.06963723995367338
-167.19138186951574,0.0701613383742406
-166.11252243980402,0.07287994124338937
-165.03019017053896,0.06590790262623672
-163.59566107269322,0.061944303508357855
-162.51361607935223,0.06714326981335053
-161.0794677133295,0.0730680284925772
-159.99770988155637,0.07534203701884519
-158.9196687594869,0.07017278461739632
-157.48247131129415,0.073826357605566
-156.40471623396132,0.07115442280419716
-155.33067561723064,0.07402186468019943
-153.89043095642816,0.07730941501396572
-152.8166752689771,0.07568790076315239
-151.73586016363743,0.07246272228143466
-150.30334178983878,0.07123197927862233
-149.22281335664186,0.07264678010030072
-148.14958652284167,0.07196068836361308
-146.7104330394155,0.06474682736657546
-145.63390257952517,0.0693339252817373
-144.56108229040407,0.06674293726362629
-143.12247393070055,0.06502100171058958
-142.04635121282254,0.060138306670359305
-140.9703507723769,0.05717655526893779
-139.5358736917704,0.05811052617048437
-138.46374399864547,0.061620450135029856
-137.0260616387109,0.06558435385501472
-135.95421611483715,0.06919177363922727
-134.52049881023473,0.07052932122174636
-133.44535332149147,0.07237960978854371
-132.36674673657348,0.0709062939309014
-130.9335726897194,0.06892268787015807
-129.85883456330632,0.07050517952808777
-128.7878003293296,0.06926213614521012
-127.35516814699697,0.06906619599525092
-126.28083633822295,0.07421312427165895
-125.2030460062567,0.07736366142782643
-123.77095646509207,0.07629765282944487
-122.70061110352553,0.07906958542129863
-121.6232285506161,0.08157081079742977
-120.19168080073237,0.08239045177582775
-119.11816215472247,0.07710370710109675
-118.04476534258421,0.0780720282775352
-116.61375907658024,0.0795555488679915
-115.54064646283109,0.07928754380268561
-114.46765561384115,0.07194555803953716
-113.04076641744558,0.06469517846165883
-111.96448371274617,0.06563338057766638
-110.53439726451232,0.07290363393439564
-109.46554891800382,0.07391438202828539
-108.39324727255023,0.07031127090618212
-106.96012734395929,0.07181573297221426
-105.88810986738554,0.08284735513660318
-104.81621396922372,0.08303803330276581
-103.3907807687775,0.07755010499761675
-102.31916806809917,0.06709242251274672
-101.24410544285443,0.0640042354099934
-99.81921093467068,0.07263062329991206
-98.74443269611115,0.07032161368908496
-97.67334679242533,0.07293960397377607
-96.24542112612899,0.06964670889006974
-95.17461850361623,0.07758931164377543
-94.10750598882805,0.07907165585440598
-92.67655101690862,0.07646539442389218
-91.60615288686998,0.08171047771806252
-90.53944344782896,0.0754441320822151
-89.10902894855393,0.06120595469846829
-88.04260152666342,0.057516191097073475
-86.61256517606992,0.06762587180382154
-85.54285415742608,0.06279774985577317
-84.12032627119336,0.06106406537953274
-83.04733302495109,0.06647672758296035
-81.62518110307676,0.06449580221248596
-80.55247142284912,0.06241299124106878
-79.48344685420965,0.0587539564092266
-78.06183176577923,0.05426176760514044
-76.9895269849024,0.06546892828106873
-75.92090590177074,0.06888563894795226
-74.49982734287151,0.06579526983813631
-73.4314881604823,0.06837613693518085
-72.3597094061287,0.06708799109739784
-70.9391670730865,0.06490422638213936
-69.86767140347561,0.05709444207074604
-68.79985660635792,0.05777666197020564
-67.37985019572079,0.05873672353357416
-66.30875873837199,0.06637790667759404
-65.24490458142789,0.06449030029120552
-63.81831864814356,0.06239687105674267
-62.751188476879065,0.06985276671401804
-61.328536075174085,0.08083207726982329
-60.25813165763563,0.08420650132815888
-58.84296618374285,0.08628832063628888
-57.77284390311318,0.08459832196178295
-56.706397699496286,0.08515200705792789
-55.2811029912463,0.08670123458518826
-54.22204599533486,0.08103231337942952
-52.79712687028114,0.0824165005317016
-51.731243440509786,0.08414646691938518
-50.66548054717787,0.07942690513331027
-49.244650821855004,0.0863148116166033
-48.18272050632476,0.08201786975569907
-46.7587141974587,0.07856319164156358
-45.69706400606741,0.08260707324702538
-44.62843329767075,0.08756901282356752
-43.21206312968881,0.08538819227001304
-42.14371425981223,0.09179828026896442
-41.07548654622162,0.08842950868821438
-39.65965047498382,0.09301183888866714
-38.598800027815194,0.09202040001927903
-37.17978894381276,0.09622747800497587
-36.11567093385315,0.09077487550408193
-34.69348762791735,0.08064093737178464
-33.633196464135466,0.08036815220017919
-32.5694791652835,0.08325135385647411
-31.147831370482365,0.08173807398449989
-30.087939424091942,0.0798875081977947
-29.021078421518144,0.08011699035662781
-27.60351002397809,0.08293307588646341
-26.544017069557228,0.08375004415168855
-25.48110051419641,0.08543968608603202
-24.064065155698945,0.09340273922902512
-23.001428646964744,0.09620875696525923
-21.938912124326258,0.1004593600176815
-20.515328062731523,0.11465788731372549
-19.460173403317103,0.12110150945480995
-18.398056687613135,0.13380640840266878
-16.978547915562707,0.1448423738516656
-15.916711329998744,0.15057671532171954
-14.858533451799632,0.16731356819054752
-13.439558681126933,0.17472404721253101
-12.378121518820027,0.18105845177262536
-10.966595687312468,0.19588874390871125
-9.901900594627179,0.2129292774575232
-8.487209913227048,0.2257488368615141
-7.4298676273003945,0.2470006077440168
-6.0120132791568635,0.2620201734616669
-4.954949304054575,0.2759569120058498
-3.8909347069380344,0.28069937546633994
-2.47714815980861,0.30464127035353056
-1.4134139770800684,0.33152092636653024
-0.3568669707047214,0.34378345121889614
1.0563881375615178,0.35072649595119093
2.1126575440889166,0.3751068952172121
3.5290732978390977,0.36678755858252526
4.588596362107406,0.37373201119078203
6.001107959237197,0.3691958047021879
7.06035231684977,0.35769499119175246
8.468962292923162,0.34207102743735757
9.527928451755534,0.3422417793957647
10.590304535306794,0.33161968733721503
12.001914086022134,0.30966618731964507
13.056953680599557,0.30075605571446784
14.471720413249948,0.2877308049715036
15.526482605607793,0.25173989543630737
16.9373504731651,0.2261627704564211
17.998888783414024,0.19142931957346362
19.409385233973698,0.1821697494060316
20.467118529726864,0.16800098122520604
21.524732668855904,0.15467799939753762
22.931174881293597,0.13354236219613602
23.99203571970792,0.12418663382601942
25.40163205320175,0.10459130172034914
26.458690394225766,0.09480491337630376
27.515629692656617,0.09186122881437321
28.921174543609602,0.08674343773369855
29.981358558525965,0.08131251160445288
31.041422803368476,0.07880696571535835
32.442918585894994,0.06511339117345401
33.50270477186547,0.06667170625856558
34.55885096667101,0.06526405424779479
35.96686095880925,0.06682714874826358
37.01921041292331,0.06709621863377163
38.43037000938294,0.06165144876737376
39.48596156267781,0.06054376081446508
40.88971426521599,0.05861360734336046
41.94854657483952,0.0458942749117717
43.355447720827556,0.04777872659362934
44.41048506941784,0.04939430729568922
45.46188751829996,0.0433470715750595
46.868261630053055,0.03689132230063379
47.92290378078778,0.03724078775024368
48.97742729684143,0.04240180904557886
50.38327414333508,0.04541121692311759
51.441034880613856,0.04955372426113377
52.49516269707299,0.047629672919871725
53.90048204794676,0.04955807924552742
54.954333283721546,0.04797242894067061
56.00455377261318,0.052426656735600145
57.40934697774484,0.05603728933230881
58.46631500614819,0.05594035653979131
59.51965288079474,0.054939796364863895
60.920408779846674,0.048406665296449755
61.97698078793496,0.04311508895015683
63.3773693202379,0.047936256734716576
64.43366424652088,0.05116527966027027
65.83719411902014,0.05656953027421017
66.88619534187706,0.05483359078430706
67.93858685210122,0.0547455695891915
69.34509883182929,0.05616283765471058
70.39721405033609,0.05102704335467841
71.79985046511814,0.04969592192573218
72.84818395946694,0.04376052339738717
73.89990562069225,0.04289635073483852
75.30552241187733,0.04883755082620836
76.35696804511474,0.047049564538600784
77.75871185504283,0.046375470760453556
78.80988196248123,0.048275309186578165
79.85743070979326,0.052525732352321976
81.26215316678939,0.05361005860066487
82.31292985376449,0.05369592397392741
83.71378191061494,0.05454117279769477
84.7642833346694,0.06124077302286314
86.1647684463954,0.059571288224147846
87.21149415728487,0.06295008575443357
88.26510309457696,0.06541344086179797
89.66506424904462,0.07058513501609975
90.71489762757024,0.06746273298912515
91.76111432570862,0.06324001344275176
93.16405067304937,0.06322706709369993
94.21349138124678,0.06443744822944317
95.26281433130805,0.06577073289955555
96.66172845298375,0.06049224641033468
97.71077671112216,0.056886448886742526
99.10932464881044,0.05248632361628139
100.15809832287701,0.06848877808653361
101.55628022034035,0.08021708049695465
102.60477941812374,0.071983115724156
104.00259541904606,0.0650958646672908
105.05082024828887,0.06276472040087655
106.09892752397636,0.05995647362006128
107.49272809129943,0.06167575490992656
108.54405412561515,0.06316127698348926
109.59176969891216,0.0680806017317834
110.99203273899866,0.06609429411890659
112.03598258448092,0.07029558190808036
113.42889785992892,0.07112601307017492
114.47955617350483,0.0650867914214458
115.5231163841756,0.06257234631613323
116.922490716768,0.06290158925104111
117.9657780400132,0.05537431722843634
119.01592617274027,0.05758389537371958
120.41128915527248,0.05792373168313752
121.4576745816367,0.053677440203486644
122.50394276372238,0.0530725471601481
123.8987846605735,0.0538729903079482
124.94477934930556,0.05200430874444254
125.99065685942111,0.050211037692967274
127.38497796243122,0.05020091799767847
128.43058213234755,0.04048218751555844
129.47258442692834,0.04493156993183005
130.86638554807,0.05189633335405963
131.91508365981815,0.04747377889512635
133.30852008244864,0.0401203219073414
134.3534608721174,0.04266422359956853
135.74653325929953,0.04072925784061139
136.79120107587994,0.04315271562646621
138.18042805823524,0.04499043828110665
139.2283045206972,0.044150395759867414
140.27258256123525,0.04356963829896021
141.66477145603056,0.04287104808990206
142.7052969594665,0.05079661019065352
143.75266526571602,0.05294781712828333
145.144334851656,0.058984354589140246
146.18795077338046,0.0549792397503435
147.2314499159817,0.05417550509950328
148.62260048357828,0.05442714924346527
149.66582721776533,0.05246438534114799
151.05661464525852,0.052742267022871776
152.09956907769518,0.05311906009630519
153.4899935072537,0.03607721381543286
154.53267574453332,0.035597136875566884
155.92273731825816,0.03273411843093944
156.9651474669253,0.02722289163393405
158.00744103879214,0.02739674160398042
159.39698449338104,0.029799503367104505
160.43900612874623,0.03626559120218132
161.83165976511958,0.03288112737413839
162.87340918213934,0.025275277998558523
164.25875545188143,0.027232386396884998
165.29676213320897,0.026930731465090278
166.3415951944601,0.020640626140018548
167.72989634439034,0.018169721577295173
168.77098643353355,0.018547565655476397
169.8119601672407,0.02255634805722853
171.19627497968472,0.035298664728586185
172.24044649541045,0.050770577536236955
173.62786868725274,0.05407061673603489
174.6648317765202,0.038335976340404844
175.70861444127195,0.03282690414759505
177.09551998881312,0.03184796420703602
178.13556358083883,0.033019815115385896
179.1754909928145,0.02973061062098385
180.5618801845797,0.028258565895259758
181.6015365854745,0.022712982687854107
182.98409968731468,0.028233290695016833
184.37338603314873,0.03746540706676697
185.4126167734788,0.03610464745785316
186.7980772512454,0.03435149384101066
187.83357424545338,0.03442066258419769
188.8758812557432,0.0336953975996588
190.26082618446702,0.02286080520187934
191.29593788094866,0.015613554628430016
192.3343957488361,0.02096164110487191
193.72228674860816,0.013229942233764913
194.7604737933666,0.016031844179677616
195.79854496901606,0.014977309183096527
197.18245966257078,0.0045078393522820165
198.21680140845876,0.0023202927119799154
199.25794563772263,0.0008553927062876372
200.6413456447228,0.0
201.67876059499167,0.007419922318902095
202.716059805383,0.011681094820239666
204.09894541289825,0.009287189548241623
205.1325180669485,0.008281175038992986
206.17288818951133,0.011646725426623514
207.55525968439713,0.01210999415047834
208.59190340116305,0.01275773754823963
209.62843150708778,0.01782962860706147
211.01028917598825,0.015992576639015064
212.0430935956773,0.018027460923477682
213.08269047455858,0.0128534967981684
214.46403460390096,0.007927673948434489
215.49645522756498,0.009691646205109556
216.53566580783595,0.02080942528526045
217.91304486255282,0.02208953787401461
218.95198516189618,0.027272587228656203
219.98390717047056,0.02400160529199288
221.36422559196313,0.021827765902830535
222.40277995856565,0.021388381750996208
223.78273896015605,0.018712929085961248
224.8175736599395,0.019568828975184933
226.19717389441507,0.0160279013041557
227.23173957133304,0.016780911717128127
228.2661899848478,0.01590904136064989
229.64527793753194,0.0120493627718852
230.6794594780098,0.009256948263645388
232.05818900319454,0.006464008679888882
233.09554795878242,0.008641431548958271
234.47047301285184,0.011148752341592499
235.50411712164203,0.0094264505145513
236.88213021090738,0.009187396699900263
237.91206136691704,0.007357135659826897
239.2931608416319,0.015907140381454306
240.32626793755355,0.025294445031580248
241.3592600137356,0.03397376726308068
242.73640389558767,0.023763434292187274
243.7691276670716,0.008852568000083128
245.14591387900785,0.01230309999611664
246.17836945030803,0.012228982948885402
247.55479813165113,0.012903343842893407
248.58698560723587,0.014412080679359559
249.6190582166176,0.010632226971596487
250.99497638151334,0.014764180331086134
252.02678104431973,0.016723421932176737
253.40234201667388,0.017902128618055804
254.43387883723778,0.022235009747572185
255.46530090019232,0.020253278237225062
256.8403518387263,0.01868085781820785
257.87150620838867,0.018518446721474558
259.2462002920124,0.017750023724839126
260.2770870725854,0.013905794320329103
261.6514244401961,0.01900019883240262
262.6820437358281,0.022484421630580162
264.05602452624964,0.021417737905894296
265.0863764410322,0.017451095300269313
266.1166137958744,0.025427724018085466
267.4900854309967,0.024532396916519095
268.5200555536011,0.023115168536808166
269.8931709483877,0.023165367844607973
270.9228739427157,0.03386323691903347
272.2956332357494,0.029877850995944182
273.32506920571086,0.04020039646249507
274.6974725355013,0.03903378554369432
275.72664158494655,0.01568793905826739
277.0986890899272,0.013576664802496445
278.12759132266325,0.014596846277027153
279.15637923713575,0.03305482196196922
280.527918660966,0.03770335589604657
281.5564399069208,0.03875876091667173
282.9241961352331,0.044139654273522164
283.95587852295176,0.05584769961301386
285.3267071071592,0.05385439901716768
286.35469532703297,0.05493870167244736
287.38256938094116,0.05806927071935215
288.7528905608466,0.06899876468234577
289.7804983014514,0.08513455423873315
290.80799193946496,0.08357464407043452
292.17780599673875,0.11601967428559333
293.2050334692691,0.14339569631905044
294.23214690253633,0.15178713297703833
295.6014541186374,0.1807472396658301
296.6248788987511,0.20029725984836158
297.9938319998916,0.22878141502149762
299.0204138807472,0.25108866001014946
300.05030319916494,0.2976103653113366
301.4153285675191,0.3343142882329091
302.4415307495388,0.3471391238108101
303.4710391669763,0.3943103981866079
304.83897931616036,0.41224106848088615
305.86480163058275,0.4245687902778714
307.23238768919805,0.44175500433405385
308.2579444872464,0.44298907164293677
309.28338752412134,0.44739575985734753
310.650467977511,0.45068240348457833
311.6790627139985,0.46293289354511463
316.1167686035419,0.47195865605508086
317.1413400999198,0.46912704105695263
318.5072587248174,0.4649808051526258
319.5349793552629,0.45545357777251544
320.8971305091683,0.44752659877054174
321.9211720465213,0.43260048111716704
323.2863841964688,0.4318854251786385
324.3101609084966,0.42370018043344254
325.3338241553951,0.41704522201682814
326.6951204976796,0.40874856088790196
327.72193058418674,0.4118515268977933
329.0862856083056,0.36430340970574493
333.5156386495694,0.34759091789154123
334.5416905577853,0.3424060708173102
335.9050382316164,0.3451346846703278
336.927416857684,0.32977464809832086
337.94968225096693,0.3272492549654571
339.31252666796513,0.3232497141045543
340.3345279245619,0.3164187429919881
341.3564160110598,0.3267807360863021
342.71875744982987,0.3121690508726859
343.7403815458517,0.3128741630247235
344.7618925344145,0.323278126300604
346.1203269271464,0.3222698380211442
347.14838238564477,0.3217404700279217
348.50646543213503,0.31197267421201513
349.5274488341649,0.312828124196219
350.8885842606511,0.3218726447943813
351.90930402267594,0.3259640285263864
352.92991082738206,0.33699924514527874
354.29054422135164,0.3283590052785497
355.31088753189687,0.3269275907347729
356.3311179476114,0.32009096708547324
357.6912495867611,0.3174327859369745
358.71121665405053,0.3189863606280067
360.070997229949,0.33311739218432174
361.09070105076626,0.3292054014299656
362.1102920828691,0.3245842096436575
363.4695713755647,0.32794792512915444
364.48889930674954,0.33277253072636903
365.5081145115751,0.35020901277730493
366.8668927982118,0.34054729275958123
367.8858450475704,0.33766644460297046
368.90468463288164,0.3259147899579301
370.26296219040245,0.3300823594872173
371.28153896558405,0.3338022942254767
372.30000313898665,0.3346435363419869
373.6577802441316,0.3446555098306232
374.6759817526362,0.35063833989568544
375.69746416331026,0.3344811954754708
377.04795470794545,0.32719813613118387
378.0691741000629,0.3361581520304721
379.0868880718557,0.3484219719959538
380.44366510164167,0.343457220430044
381.46111669868526,0.3436000274925298
382.47845588047323,0.3349016925030802
383.8347332868724,0.3294851379081961
384.85181023882296,0.3284345277127388
385.868774837602,0.318134853602704
387.2279420914635,0.3090704394790909
388.24125541028604,0.30819601369857097
389.2578456328948,0.30782529105581113
390.61651256747166,0.3153656894630724
391.62945290236956,0.33948901641411244
392.64905615469667,0.3357862066590141
394.00044914647015,0.33107146780573504
395.01640340386996,0.32821394161928147
396.03224549406883,0.3264128817913723
397.3865271641227,0.3300601598125306
398.4021076030713,0.3329219888912855
399.42096064372174,0.3236969909469782
400.771359360973,0.32536628932878814
401.7865661877561,0.3229863562074526
402.801660971089,0.32297442107931046
404.1549464244541,0.3299658559185424
405.16977984519474,0.32729517605783154
406.5227168823963,0.3305695319170026
407.5372890414785,0.3344638859193994
408.88987779705514,0.3300134079882431
409.9041887953503,0.31792253237178086
411.25642940377026,0.3170875704730354
412.27047934210657,0.3164279645119297
413.28779703505626,0.31864388623847417
414.6361609169187,0.331638572931896
415.6532168242069,0.34313373772163536
416.6634034672665,0.33567136031141426
418.0146501098583,0.32993896840756753
419.0279547176964,0.3358476501233558
420.04114759683904,0.3383400733089487
421.3918976674362,0.34441267691604677
422.4048299181378,0.344945054195433
423.4176505017213,0.3401256835301807
424.771279659741,0.3586416637295801
425.78046437277294,0.37334326230774467
426.7929128659581,0.37896958982889095
428.1426706134018,0.39632084769254233
429.1582325392703,0.4341531109307674
430.50426945796903,0.4551857219162304
431.5161973689793,0.5480813863597939
435.89993009628483,0.5923091590003368
436.9112635477359,0.6128475364743771
437.92248559633504,0.6530085636403781
439.2706083996238,0.7244837221315619
440.28157057981576,0.7584985319159915
441.2924214184944,0.8037816190962592
442.64004937061526,0.8490018798476817
443.6540089349054,0.899323644428665
445.0012901587811,0.9251449491763685
446.0082536904416,0.9539176415998489
447.01847394119085,0.9795444608685445
448.36526127140905,0.9848125324145465
449.3785883897698,0.981084027264696
450.3850716320625,0.9889212739171246
451.73136484617197,1.0
452.7409550988628,0.9977506643543094
453.7537989812761,0.9762167995850937
455.0962336064842,0.9542989309424688
456.1054535473345,0.955108810409309
457.4509073879108,0.9317625806105002
458.45986823168784,0.9135965004428572
459.80497667601566,0.8691595708876259
460.81367852247695,0.850552830931177
462.15844170354177,0.807069054291532
463.16688465240946,0.7662187877961927
464.17521667566933,0.7497779710738859
465.5194868540523,0.7103566955775232
466.53092018090103,0.6939766312225679
467.5355225254856,0.659476399683847
468.8792999722426,0.637548200194771
469.8870037626689,0.5862979701481119
470.89795520744326,0.5513019752363215
472.2378817354167,0.5328304193205535
473.24857384785685,0.511047821626463
474.25579725189266,0.5006483669358508
475.5985895557336,0.48411938769188384
476.60219826473525,0.46887799518593476
477.60905302717384,0.44028017640648187
478.95470940912463,0.4229428768112397
479.957950479023,0.35223750435151857
484.3185909189987,0.3362445076775218
485.32459772601015,0.33261745635409357
486.66576821243814,0.3300015749448954
487.6715171586677,0.31176853062558735
488.68050756697926,0.3011850622869322
490.01783508140545,0.29656850013226294
491.02656691154016,0.28748365272449605
492.0284861519383,0.2752853734989119
493.3686748509556,0.2664808566153904
494.3770374560974,0.2529196375097874
495.7168822937658,0.24750134090600587
496.7182881947767,0.23498371390927264
497.7229331455576,0.23123335220025965
499.06228817265486,0.21925965960418584
500.0700235603835,0.2160850910341625
501.0709531422773,0.21273699331180043
502.4131650543858,0.20888651299698205
503.4138382975061,0.20619590818985872
504.41774826087976,0.20560309026984191
505.75612349300735,0.20238657445962366
506.76312172684067,0.18994305043280668
507.7633191734212,0.18365707739033735
509.1045493802555,0.17613863152613454
510.10783487135615,0.17534841234482473
511.1110102867035,0.1706296184417015
512.4450630633842,0.162391502661752
513.4513249518659,0.16143486026779522
514.4507910661287,0.15924747666296474
515.7910406443367,0.15248786068891865
516.7902509817761,0.14798013710096836
517.7926933879596,0.13921932049012686
519.1324530551044,0.1366997560857522
520.1346386033063,0.1354168861793979
521.1367142567218,0.1381558057872026
522.469304630363,0.1251226277124964
523.4711242990269,0.11995934294460864
524.476172982202,0.11553511238482034
525.8082764225007,0.10158083815833852
526.81306804117,0.09351881849457296
527.8110738950778,0.09002383869507911
529.1493654396888,0.09006247734464752
530.1471160770835,0.09279560736648033
531.1480941417283,0.09333395067992403
532.485896848387,0.1010798036700066
533.4866186176265,0.10165015113131674
534.483895541158,0.09817736484680908
535.8178749732828,0.11324482402772011
536.82156600324,0.11458493163443832
537.8218127347702,0.1160806814632263
539.1519711081587,0.11376803423398003
540.1519625553806,0.10869983337440271
541.1551772250617,0.10181646592929604
542.4881822672467,0.09639517999158319
543.4878083058104,0.0939112442705782
544.4839933302472,0.09524413351828033
545.816512307392,0.09076486838626424
546.8157738670415,0.09787971953034479
547.8149260124771,0.09816984340563285
549.1469587042366,0.10301032049893077
550.1458556197259,0.09648724273713578
551.1479722899136,0.0927515301386568
552.4761898534086,0.09263157403168158
553.4747223242989,0.09579146266936348
554.473145500701,0.10289676609021017
555.8075338288278,0.1000145359956147
556.8057016903851,0.10077715101927064
557.8004336366532,0.09833729415201845
559.1310090683648,0.09917867225306556
560.1288132481513,0.10408813883354162
561.1298337204697,0.09934071296213859
562.4599234451284,0.0957199259545385
563.4540387957385,0.09368292889290632
564.4546942684436,0.10043770141263801
565.7809752666534,0.10936980821418958
566.781375358402,0.10685248755409903
567.7783426245229,0.10439801776064492
569.1074627017074,0.10179856077964426
570.1041755745446,0.09050032222053814
571.097457619611,0.08634552581919679
572.4260937549238,0.09014338136747653
573.4224437408162,0.08714493619747009
574.7540614355241,0.08301292441565541
575.7468367640142,0.0835117426083492
577.0747951471287,0.09936372400014004
578.0706369161259,0.09749344555727925
579.4015754243876,0.09681468398407955
580.3971628680046,0.09828551446408706
581.3926415002891,0.10061035974149193
582.7164595141767,0.103458532768566
583.7116846852416,0.1063803670335833
584.706801104356,0.10898693779388159
586.0334538576124,0.105792780555438
587.0283165914866,0.10702938102574394
588.0263862978767,0.1118013480427655
589.3492403080583,0.11506509706307912
590.34374080269,0.11186066749535496
591.338132664132,0.1098748867995429
592.6671335003929,0.1048800505959533
593.6612715916502,0.10733048745938331
594.6519878576929,0.09767640503421525
595.9771921681538,0.09478700644119636
596.9742811848092,0.0939855214491124
598.2991473843751,0.09529540081767897
599.2893588956999,0.09592840452606964
600.289396261345,0.09615887766263874
601.6104691576634,0.09945721248953628
602.6003203660359,0.0954044343844158
603.5933738803283,0.0954517712604874
604.920586134877,0.09641927990546938
605.9100772369145,0.0917322073718107
607.2369515173294,0.09526196171833612
608.22949897343,0.09414614635564855
609.5527270971935,0.09616497250662015
610.5450218497205,0.09768258323893794
611.5372083302515,0.09468547851032344
612.8566486178,0.09679768222872469
613.8485828933332,0.10008923056331603
614.8470207665375,0.09923750973417507
616.1659808303017,0.10144116673358677
617.1575541041467,0.10035270632214927
618.1457145199639,0.1024046147055063
619.4675002848649,0.10501200270860475
620.4620173379526,0.1023238459815865
621.7834662993382,0.10786924762302656
622.771123912175,0.10231388871537522
624.0955397015646,0.09327353558497942
625.0862482391701,0.0923085890224626
626.0768487642918,0.09351336587629162
627.3974814755527,0.0960283653574421
628.3878300402182,0.09371333070321596
629.3780706512583,0.09504068240552947
630.6982235686237,0.09112696478218806
631.6915121386978,0.08945390604027788
632.6780932495827,0.09011554485728422
633.9944676901004,0.08959519381107187
634.9906944252748,0.08603913695830878
636.3067337091828,0.08812809592124177
637.2928135799891,0.09570831438802546
638.2853811485334,0.09432308157202181
639.6009430195595,0.103061471185046
640.5932582968956,0.09535188996685189
641.5821689299513,0.09172546245586002
642.8972531703281,0.09490836021912581
643.8892081984883,0.09100237910111142
645.2105479982982,0.08498089224761797
646.1923667077616,0.08573032968693621
647.1806675267978,0.09095360218178027
648.4982345479119,0.08693664557201529
649.4862842833325,0.08171665409114423
650.8068094312157,0.07659710213649129
651.7946078202018,0.07448604928403516
652.7790065480256,0.07872451011314228
654.09905255901,0.07948371482633954
655.0864925598424,0.07910652436891878
656.4029120420105,0.07887984344385168
657.3901012871768,0.07438730358062158
658.7028965172366,0.07491516632186752
659.6898354602583,0.07878414830696481
660.6799562655788,0.07419501770969571
661.9955641524842,0.08086213772491274
662.9821448171169,0.09183062901676368
663.9653300774631,0.09170828565286361
665.2804613828692,0.10800934346908722
666.2699719110126,0.09317591448883575
667.5847689529668,0.09203637869657523
668.5674552023133,0.09302095348945362
669.8819190613696,0.08704204243413784
670.8676418684482,0.08429299767543014
671.8532574773438,0.09426058594428126
673.1705296298633,0.09103419258356008
674.1526104478554,0.09387209221655518
675.1378688557553,0.09851308037201797
676.4546636405851,0.10818922704193536
677.439671766344,0.11135535355821546
678.4212899848624,0.11257557283412825
679.7376076614494,0.11389643625879596
680.7189769233129,0.1143128246213522
681.7068031478643,0.12160900774064078
683.019362339118,0.12818928033502677
684.0003761128787,0.12312788243064007
684.9845640821055,0.12465344757139377
686.2999283197886,0.13313544466352586
687.2838664146185,0.13171796227191818
688.2676976022705,0.13350686428949854
689.5793062491824,0.12866122356037302
690.562888054481,0.12782078948424483
691.8708863011221,0.12902443495548846
692.8574967725651,0.131240529142912
693.8374452401873,0.13762982961600378
695.1515239776593,0.13217732376533622
696.1312241235353,0.12174319340166585
697.1173703412722,0.12251478713296036
698.4244218092987,0.130335780173509
699.4070429545951,0.12813001772714463
700.3928322770407,0.12474749776061242
701.702685136925,0.12061822671256771
702.6816763119713,0.11695874471210302
703.991197866427,0.11193069765892359
704.9764878608712,0.10890544118648443
706.2824045508595,0.09834337084071382
707.26744502356,0.08846821466684732
708.245834178309,0.08461089710345221
709.5578220607149,0.0865352631027283
710.5392346846506,0.0896446830518199
711.8476191926625,0.08909030663628746
712.8320537223897,0.08563111040736193
714.1368366396202,0.09182571679319639
715.1177524311278,0.09393623148197973
716.4254746216839,0.10249457338287898
717.4061421384481,0.10544551081753444
718.3867032806,0.09888820061319752
719.6939526951088,0.08889242103565492
720.6709981637499,0.08578686815258642
721.6512052032117,0.07549476007358999
722.9612492770405,0.07643423275107446
723.9412079565487,0.07642021253835617
724.9243263738172,0.07975595988665998
726.2273650079903,0.08636888870196902
727.2069695570341,0.07899050099747322
728.5129437560844,0.07926226052043868
729.4923005280065,0.0837023075937945
730.4715511385136,0.08855953586069462
731.7737899883596,0.09055709634378073
732.7560564766811,0.09133329607409381
733.7349533404364,0.09532815744641326
735.0399841380752,0.0999049537437812
736.0186334931409,0.0982049675266149
737.3233343417775,0.09301455139047086
738.3017362820159,0.10090230035051856
739.6028466141535,0.1097975397805181
740.5842619259863,0.10575153941107393
741.5590505930187,0.09824443944472802
742.8662106438711,0.1044641004578403
743.8440121099984,0.10514918388778872
744.82170766749,0.11153030151038665
746.1218786884147,0.12126144330518136
747.1025855313709,0.1289195285164384
748.4056855491084,0.1289652250184786
749.382887093748,0.14147068115513495
750.3599828272053,0.14322970012540284
751.659356233123,0.14863699013446133
752.6362054931848,0.15231810471472212
753.6129489992747,0.157103464637413
754.9183643625377,0.1552515792604538
755.8948608237844,0.16090202475901078
756.8745060474992,0.15470647779118132
758.1696875629923,0.15419535820981004
759.1490857593656,0.14994130573361772
760.1251243255513,0.14928096493814935
761.4263447819873,0.15291273205480918
762.4021369226775,0.15114666139424998
763.3778234810145,0.15489483091173292
764.6785746825258,0.15831091330595565
765.657266239741,0.17124331041607363
766.6293496895385,0.18480325590522179
767.9296318899179,0.1867512564556871
768.9047204717878,0.19034637721207898
769.8764538169338,0.17929259727060343
771.1762677384091,0.1726623525935545
772.1542541260943,0.17392679484315704
773.1288858026986,0.16836853353537964
774.428230761458,0.1731320050176522
775.4026165451486,0.1709062440252686
776.3736495482046,0.17635997674127452
777.6757736925588,0.18493275414464752
778.6465617547472,0.18435418622503155
779.6237377343033,0.17901422858009014
780.9221464644237,0.16630682864736157
781.8958302094754,0.1750920627292941
783.1939114986161,0.18128000054001867
784.1673497093865,0.18706526688214653
785.465103681396,0.19028220222051048
786.4382964507441,0.18891040659363534
787.4113840593283,0.17924211749724162
788.7086706501531,0.1895177791410016
789.6815129498995,0.18380674224221336
790.6542501456777,0.18906239705857836
791.9478277920147,0.19631100338743754
792.9235616271852,0.19233730330793794
794.2168132505219,0.19135864958790133
795.1923011850076,0.18701631112686407
796.1644431132576,0.17662518294062668
797.4572292032152,0.16630741976760255
798.4323660122246,0.17459703755922706
799.4009189058739,0.17246850616240084
800.6997175123281,0.14262661819033362
801.6712647192952,0.14850673117454363
802.6394690652781,0.14582284641845433
803.9378003098327,0.13994136223355447
804.9057607843832,0.14435028602957684
805.8768539220731,0.15313077665176364
807.1747180569489,0.14241074873466059
808.1455662902544,0.13527671336296
809.116309742573,0.1345438693258535
810.4104713823349,0.13835076752676806
811.3809704116413,0.14479416726472602
812.3513647164884,0.1464514794857102
813.6450609141964,0.13476338511173291
814.6152109278786,0.13520457998873942
815.5852562735855,0.14366485905299942
816.8752544347117,0.14105117154753818
817.8450559697422,0.13843507804689983
818.817985041349,0.13799242595612102
820.1107511079113,0.1468915372010778
821.0802036549239,0.14075375935199522
822.0463206604962,0.14729867098082142
823.341853023918,0.15041842207328665
824.3077269462214,0.14673931920745162
825.6029333631685,0.16232582779435478
826.5717936547129,0.14132804700450027
827.8634448873989,0.13822964907079544
828.8320614667803,0.13693961559321646
830.1233878112245,0.12964727610529617
831.0917607703911,0.14731126546084589
832.0600293490265,0.1437572691273345
833.3508917800008,0.15149540680486212
834.3156902926996,0.15285779682740136
835.2868376350933,0.15285753384929618
836.5772364025498,0.15877184428980454
837.5449138101819,0.16142496679608256
838.5124869497197,0.15785715083078738
839.802422303426,0.13818133400369667
840.7665279563524,0.1418001304821921
841.7369779171947,0.14411550675789994
843.0232266571995,0.1403410773527038
843.9934327119585,0.13548617038156385
844.9603111613575,0.1327392209235462
846.2493204361535,0.13142034657412582
847.215955920749,0.14293268006884216
848.5046413035196,0.13703231663885346
849.4710339148806,0.13628341461202503
850.7593955276908,0.14015258430068092
851.7255453573374,0.13430310748566665
853.0135833221923,0.1271974369456659
853.9794904616015,0.10498634911959348
854.9452936189045,0.1044075436069194
856.2328694410465,0.11725095701321943
857.1984300387152,0.1083015754894111
858.1638867102279,0.11191630105217011
859.451000638335,0.12125234174694718
860.416214880724,0.1236773602523818
861.3813252528695,0.12077192495327373
862.6679775354382,0.09881613699986792
863.632845608876,0.1122468957597331
864.5976098679419,0.12428137717956833
865.8838007532952,0.11793527491109153
866.8483228439744,0.10407254298876957
867.8095266206763,0.09835966964569877
869.1016850056576,0.11989637850458502
870.0626472063781,0.1341914761505009
871.3448409980056,0.13178385242115578
872.3087756905073,0.11783077241303523
873.2790319116151,0.12225080238450382
874.5607656678472,0.12631823779252138
875.5243545340708,0.12608617511837317
876.491051236597,0.11874163809739871
877.7723256641793,0.133216405269791
878.7355692354025,0.13857084952170273
880.0197329185595,0.11894592212563285
880.9827348937085,0.12489439888263466
882.2665765093518,0.1149680450772603
883.2293369793017,0.11243283425479828
884.1919939748367,0.11724730778777173
885.4753757041734,0.10845459646702149
886.4377913242639,0.12318530730603565
887.4001035255266,0.1205367995872535
888.6830256156167,0.12311495336838782
889.6450965710945,0.12097895388824316
890.6070641632937,0.11886078258624941
891.8895268610207,0.12759559369171583
892.8512533370027,0.11938101590030252
894.133394606879,0.12157627900771106
895.0948800572859,0.12233679782209703
896.376700020135,0.10216409031863977
897.3379445355653,0.10542091626626798
898.2990858208705,0.11049737680397881
899.5804469831547,0.1135182419780744
900.5413474628288,0.10476839942043922
901.502144767791,0.1127368373612108
902.7830473757953,0.11091162125552725
903.7468056873576,0.10729977918489848
905.0241857708289,0.12735519644674778
905.9845018134495,0.1234917154073681
906.9447147754727,0.13553586823835354
908.2248384059217,0.14970749723915058
909.1848109110798,0.14638778159269772
910.1446803909456,0.14156364877213645
911.4243461311991,0.13230463132812662
912.383975283201,0.12662091585350807
913.3435014651832,0.11456458642423763
914.6227095608726,0.08322539439163891
915.5819955438999,0.08313314264446739
916.8608834344503,0.06792401925097656
917.8199293087118,0.06566790223922518
918.7788723068077,0.09038245526844632
920.0573029699652,0.09844049392222237
921.0160059880499,0.10125128621865825
921.974606185133,0.09760787643385709
923.2525798660547,0.07965374594926672
924.2109402117862,0.0729102886135147
925.1691977916342,0.07775013911204876
926.4467147353012,0.09565443026221881
927.4047325923704,0.09587009790210287
928.3626477386365,0.08501945337443333
929.6397081898585,0.09683441287028687
930.5973837418237,0.1095774544668039
931.5549566380306,0.10684837650447172
932.8315608414392,0.08289582016361471
933.7888942717284,0.08676753583279671
934.742934502247,0.08017124330593499
936.0222733013163,0.07145572289442181
936.9792647932301,0.08640050424642806
938.2519045907084,0.07463758548027775
939.2118461803295,0.07300920278190191
940.4873563860375,0.06697228971014578
941.4470576775071,0.08021333998835743
942.4002800888817,0.08038448459091699
943.6753348772208,0.08069419931452479
944.6315064640993,0.10538688266272062
945.9062426053902,0.10700696619304267
946.8621752517741,0.10631875357982105
947.818005522509,0.09188768578446961
949.0922866608944,0.07876093620188931
950.047878119057,0.08953509109727267
951.0033672563688,0.08559618151677592
952.2771936354202,0.08351726002749726
953.2324440879872,0.07844568525620069
954.1875922744691,0.08914890608390948
955.4609641375818,0.08876477727929971
956.4190566282256,0.0908147579320883
957.3706811851694,0.09218373630472493
958.640416708092,0.08958287875240534
959.5981677643165,0.0872865242494177
960.8675862354886,0.08708065491543297
961.8250981571167,0.09042505713132087
962.7793266873855,0.0945558457553334
964.0514725718668,0.09437549194807125
965.0054628895555,0.09158210495665013
965.9593511434522,0.08249580323640439
967.2278644065515,0.09113839325513423
968.18151491533,0.0935197551056481
969.4560684598853,0.1043811542368661
970.4094806325578,0.09101610276527781
971.6805382440074,0.10101776193255521
972.633712509712,0.11230921582983341
973.5867848425503,0.09488386000371148
974.854213133455,0.07838115240207413
975.8070480261287,0.0855980677935433
976.7629566467334,0.08464527149344878
978.0331084303776,0.09129579956033083
