unconvertedTime, unconvertedIntensity
-992.0680074245141,0.02197383368848223
-988.5441727897022,0.024504357934956107
-987.3698401120497,0.023558320399998684
-986.1956468266601,0.02269105479486706
-984.6341856957632,0.024075504624982747
-983.4603170980869,0.02393527737922776
-981.8953756674664,0.02302508531013608
-980.7179205079998,0.020757665984061525
-979.5484277584529,0.021254083704609444
-977.9801947284961,0.020659621772346887
-976.8071156883126,0.01753463590254637
-975.247136196248,0.009982406028610029
-974.0704724316743,0.012271795515334366
-972.9017656786855,0.014877146002734641
-971.3345865590622,0.010232120017808318
-970.1622958165665,0.008027794785391576
-968.9901441029442,0.011011657747412447
-967.4235850536382,0.013990533966933939
-966.2595698272899,0.012389212297903459
-964.693443555951,0.01257642439883434
-963.5219403168239,0.012576335897311473
-961.9601520429702,0.00994790268845816
-960.788972839303,0.00965764511205275
-959.2315196062067,0.010899786718572859
-958.0567612204851,0.011381954620957294
-956.8860446914593,0.014492847226249767
-955.3292066881864,0.011201509941950636
-954.1549123269489,0.010435459564381914
-952.9807575832524,0.010976493117072826
-951.4245350600097,0.011959974325053874
-950.2546044488968,0.012878804578381945
-949.084812447025,0.012256205234155928
-947.5253053496723,0.01292282870685381
-946.355836673585,0.012178596894536447
-945.1904040617407,0.011458076916274177
-943.6276151035804,0.011022870431349476
-942.4586080889884,0.01403948061757926
-941.289739519541,0.012319480120729948
-939.7314634102183,0.01027973304321694
-938.562917783805,0.010113472540827404
-937.0050721759746,0.012536330640902952
-935.8368493587831,0.012602094484420494
-934.2794340740666,0.01191367290085318
-933.1115339323496,0.00940722848624921
-931.5584409489173,0.0087854253058071
-930.3869711925581,0.01256198893671063
-929.2156405503042,0.012934967028960492
-927.6670514487964,0.013035292266406607
-926.4960437699868,0.01074344873847756
-925.3329545223278,0.01279904257002374
-923.7733076857972,0.011916045259316044
-922.6066508979947,0.010059361879466752
-921.051323220023,0.005446473236675284
-919.8811009073214,0.007662869737889699
-918.7187916689417,0.006027157684476058
-917.1640771941649,0.009141932079773343
-915.9982022404622,0.013494005832077471
-914.8324651759009,0.016995576261184385
-913.2822484902823,0.01495814289746973
-912.1129481233904,0.010161559470752878
-910.9476705126583,0.008265388120177198
-909.394181356846,0.011416945449571766
-908.2292252021919,0.012942353255433685
-907.0644067737152,0.009292383524066488
-905.5115297342447,0.006165859299505253
-904.3470325718694,0.008284263930083531
-903.1826730542886,0.0036458758181545114
-901.6304077694458,0.0013063921358121699
-900.4663693281415,0.0016419581849383563
-899.2985890107249,0.006940240714494205
-897.7546933885625,0.008947908805308298
-896.5872345674313,0.00449926274370333
-895.4276699717645,0.003710586281551559
-893.8727491988202,0.008161290906759506
-892.7096273868777,0.01267492877723919
-891.5466429759554,0.013186175385537503
-889.9962107875557,0.014539935094165025
-888.8335468843325,0.008119590244140497
-887.6710203009982,0.01028109765650348
-886.1211984232152,0.015804961771690187
-884.9589921583544,0.013647583747984905
-883.7969231323167,0.01388103198582062
-882.2477112048564,0.016638190790154217
-881.0859623082127,0.01688182506661391
-879.9243505693888,0.020779485053944596
-878.3757482322472,0.023474915422252395
-877.2144564338843,0.019609298060515284
-875.6662805959133,0.021894631342123362
-874.5091782848708,0.0220698442524255
-872.9575590908856,0.02443923162287228
-871.796906777041,0.018352203799532434
-870.6363914268682,0.018426405971276892
-869.093118187816,0.016292852090876678
-867.9329218689679,0.011080258488990635
-866.7689957971741,0.011875448065811353
-865.2224633780569,0.014975314658752415
-864.0627236976278,0.01407886090488691
-862.8992557051766,0.01406309114308117
-861.3571964098866,0.013810495612369285
-860.1979126425616,0.012232112479607827
-859.0387655967437,0.009230367836172622
-857.4934488384206,0.01216118176895307
-856.3346207154124,0.008757415192491272
-854.7897290997523,0.008695017105543528
-853.627358298587,0.0067593482497265685
-852.4728470206779,0.008831809585071352
-850.928562447402,0.012772205487729137
-849.7705083034598,0.009513514845485852
-848.6125906635608,0.00957700751376509
-847.0689127749472,0.010262554709803445
-845.9113135506465,0.007861474756635428
-844.7538507499683,0.007757575399101401
-843.2107791885745,0.00841797745599821
-842.0536346159085,0.007515362165107151
-840.8966263865042,0.006517284180695604
-839.3541607951723,0.005846687622676725
-838.1974706063461,0.005339111956913974
-837.0409166804824,0.005385654497088263
-835.5029110503244,0.008298908793936544
-834.3428206297526,0.009890707483233643
-833.1867207399084,0.007986543458708702
-831.6493188533652,0.008546150022088177
-830.4896837946349,0.010449323332196473
-828.9450007656628,0.007992113276107125
-827.7933878521798,0.0130965327643934
-826.6380592101907,0.013295495478113742
-825.0978326071939,0.011579619023389786
-823.9428213135551,0.015330801557410657
-822.403017754515,0.014277731404119524
-821.2483236784798,0.01498266920254363
-820.0937655128464,0.017564169905119432
-818.5545660000382,0.0236815131983071
-817.4003248653686,0.021282669492190775
-815.8615479734641,0.012341897635113857
-814.7076237391984,0.01094719955066773
-813.1692692941588,0.011543841905942698
-812.0156618298025,0.010445812854929386
-810.4777296576865,0.011818414022696257
-809.3244388328237,0.011407968962184965
-807.7869287597848,0.013295926188048486
-806.63395444407,0.015373308889721897
-805.481115735243,0.013639704307749351
-803.9442083595096,0.010833379491579608
-802.7916859737434,0.013098436739379037
-801.2552002752946,0.020230974929922315
-800.1029940824064,0.021747971187821107
-798.5669298877237,0.019126440119146784
-797.4150397576177,0.018321393865756704
-795.8755580877454,0.020192786189486788
-794.7278226959196,0.019719428152628442
-793.5763838585221,0.02016700904988717
-792.0413425940229,0.019171505921316067
-790.8902195037421,0.01835701962639156
-789.7392316938927,0.017175230658679947
-788.2047916757818,0.018709331596369116
-787.0541194275582,0.01804871424126983
-785.9035823803051,0.0187383065547926
-784.3659089586889,0.01835006813744465
-783.2195215844292,0.01704106981904557
-781.6861028747875,0.020516748677423292
-780.5361964504374,0.018486968948914443
-779.3864250921071,0.017960177508830357
-777.8536066759158,0.018447774025829956
-776.7041503791122,0.02390551134230455
-775.1679212632414,0.02346903496645593
-774.0226105938609,0.014579144662817959
-772.4906319964684,0.017943939707484226
-771.3379762380247,0.02013299343286357
-770.1892850012606,0.019978070021258766
-768.6617345987204,0.01772184301114926
-767.5133575302901,0.014203975718655311
-766.3651152585286,0.017596499368514942
-764.8343352055275,0.016286405717870014
-763.6864073670382,0.015415245354916781
-762.5386142461358,0.014332311994543039
-761.0084329379542,0.01055026828761533
-759.8609540658579,0.012002102387868106
-758.3273675639684,0.014509535450431378
-757.1840269177425,0.01398753966414607
-756.0369967487001,0.016958745812447384
-754.5078325008124,0.019472488285414837
-753.3572941048226,0.01687986823405142
-752.2107128240076,0.015216120680835532
-750.6859680874778,0.010005134890223612
-749.5397001098413,0.00775723744753217
-748.0115519085728,0.006244966885941927
-746.8655975536589,0.01149609759653076
-745.3378674302104,0.012445828009681765
-744.1922265693216,0.012689797873020483
-742.6649143521481,0.01184898962717211
-741.5195868566628,0.013015262670454707
-740.3743936212772,0.01543910076251626
-738.8476781156728,0.018905288913244937
-737.7027980620649,0.018363905083864363
-736.5580521898897,0.017825779131108038
-735.0319330462263,0.015615113967151855
-733.8875001723464,0.01007569696311647
-732.7432014012894,0.01156293424128197
-731.2176782702124,0.016688039983202826
-730.0736923141122,0.018384369825242997
-728.5485861841233,0.013691475328612566
-727.4049129147187,0.013105800144697885
-726.2613736146579,0.012535240912400311
-724.7368629039748,0.014610311462297515
-723.5898255754358,0.013409099828877499
-722.0695419829037,0.009270638534936725
-720.9266275619601,0.0003201892443864597
-719.4029498526911,0.0
-718.2565392290658,0.0006762046855724811
-717.1178792870038,0.008466868168318901
-715.5909887509285,0.01664038954114963
-714.4526398333151,0.01745233064536271
-713.3106172087141,0.018267398386693164
-711.7843223931603,0.014824971659106886
-710.6464175751678,0.017588850853450622
-709.5010354237418,0.016634366924955183
-707.9829454537014,0.014242880576340633
-706.841680035578,0.018402125763711967
-705.7005481639512,0.014652758290253028
-704.1792467002639,0.011883646409681144
-703.034623834666,0.01012713748581023
-701.8939373936269,0.011393303022780143
-700.3732297157891,0.012291490015449522
-699.2366556384899,0.01166213196126061
-698.0964134780874,0.010859994984905629
-696.5762980531835,0.011540340947810224
-695.4325674988132,0.013687811776365782
-693.9166664069097,0.012413076776069974
-692.7732479149732,0.010446056304324589
-691.2539624843404,0.009364896350798903
-690.1146538453728,0.011777432038177058
-688.5957828610086,0.010689860463406024
-687.4567849931494,0.011243474059286926
-686.3179202739824,0.009675900765067646
-684.7996410616029,0.011445045173101279
-683.661086931943,0.012617408127598784
-682.5264603890193,0.012152623618959328
-681.0049780870044,0.01252264049700143
-679.8668674362814,0.010714527891228108
-678.3495934428594,0.014099731488973016
-677.2155855203007,0.013701296228421265
-675.6987245596621,0.013095703018313956
-674.5574424879873,0.012411555989475874
-673.040995572552,0.011276548346254653
-671.907605764567,0.0077896112534927295
-670.7705579639883,0.009859721998157316
-669.250911467328,0.010428063971346649
-668.1141739558864,0.011930759621001756
-666.6025187551433,0.01283815872764089
-665.4623026489159,0.010850279606017426
-664.3297949854591,0.016149143582679173
-662.8111538104712,0.016148532141899763
-661.6751682560982,0.018260056052025943
-660.1607271453569,0.01788845592751372
-659.025051003511,0.01716374368051589
-657.8932923534056,0.02016131863070579
-656.3756555028136,0.015118133780776517
-655.2366372667069,0.01384209383995787
-653.730764764806,0.01446333023985384
-652.5958390858085,0.012692299826069769
-651.4610458421063,0.012526637994875767
-649.9481941542372,0.01482086019998291
-648.8137098360899,0.016555234452116034
-647.675576924105,0.01851900492693512
-646.1633140823357,0.017221609546995465
-645.0292713086104,0.017423581761798923
-643.8953608156709,0.016318679205681086
-642.383685888536,0.017018238823363528
-641.2538624142567,0.015666254733060436
-639.7388203699276,0.010932265044110531
-638.6093043068546,0.012348634449046167
-637.4723655426344,0.012786502851549357
-635.9616892838513,0.00817580803651992
-634.8326121620527,0.004976028869032357
-633.696115197885,0.006758649381928719
-632.1860259288604,0.009196722397094372
-631.0573874925159,0.009470626807306133
-629.9213320709379,0.007358625975328549
-628.4118294496116,0.0059387139368886985
-627.2798564188148,0.009189035535672197
-626.1480153068483,0.012711907825331624
-624.6428709898969,0.013228130410650645
-623.5075656003946,0.014713810681233825
-622.376164051346,0.015532662750093875
-620.871604234039,0.018215507027000418
-619.7367396929633,0.018717508523184434
-618.6095471061027,0.016505878472997698
-617.098032722912,0.01704321351844435
-615.9673778433702,0.016683205396878845
-614.4638108943751,0.016779771375865123
-613.3296952065385,0.0172809480587699
-611.8265368000277,0.021410091733210828
-610.6927292481081,0.019762546522302964
-609.566586443793,0.015825473989905223
-608.0602452360049,0.01764402959402633
-606.9306427820468,0.017585246788566294
-605.8011718327429,0.017275657572374675
-604.2916509911333,0.02040938989437457
-603.1624872348781,0.018835200050864972
-602.0334549066862,0.01631079688260741
-600.528282873093,0.019311879390933345
-599.4033193221308,0.02444970177485883
-598.274724483995,0.024346994568248
-596.76637447213,0.02068522443044294
-595.6380864697089,0.017919106463578183
-594.5099297424867,0.013310083464265592
-593.005924939122,0.009746032767211064
-591.8780744316115,0.014905163222717831
-590.7503551229505,0.01843957002868562
-589.2506916891293,0.01441641680534429
-588.1232779850036,0.016993144489372836
-586.62026367744,0.019329252815656048
-585.4931558905714,0.02120464114457326
-584.3624228030789,0.021072426817173414
-582.8599916080286,0.0205770066827424
-581.7333210665523,0.02255427095888841
-580.6067815180952,0.024095223584427262
-579.1049325142629,0.026266085379559784
-577.9824524231688,0.025728636938031818
-576.8525954573585,0.023950631334462916
-575.3550811841827,0.023344808432786763
-574.2292830620063,0.02390255689059628
-573.0998637752367,0.03333792460258443
-571.5991781391031,0.03411818784710915
-570.4775674887451,0.02384511091519386
-568.9735377237369,0.024233109688775956
-567.8484811676219,0.026125260864143424
-566.3523584752746,0.06023877378917557
-565.2276064420164,0.07185411258391054
-563.7243919327973,0.06985725264079
-562.5999451695573,0.07148731196137127
-561.1008859785962,0.06964520272212417
-559.9767439258991,0.06316674390637175
-558.85273242552,0.06354226823114216
-557.3542534670925,0.06058603759031016
-556.2342919734979,0.06147852762693767
-554.7362183975905,0.058464240440920356
-553.6128154059707,0.05953275019512009
-552.4857988141279,0.05493586751850306
-550.9920489224804,0.05800922083419085
-549.8690805878667,0.06309844386222102
-548.3682498040046,0.06320084056894161
-547.2493280097641,0.06487752241084115
-546.1230525180387,0.061842837643218844
-544.6265438323951,0.06054077255653767
-543.5080548189624,0.06127008039193843
-542.3822149270679,0.05844526932796122
-540.8900245301902,0.05498310280576991
-539.7682285102524,0.05235445814112592
-538.6465626341702,0.05464681998903403
-537.1474724491894,0.051171692141069716
-536.0261105876519,0.0491003724374624
-534.9086160177008,0.045281083402016656
-533.4063687155823,0.046681781367280954
-532.2891769710174,0.052224007664003286
-530.7948079936466,0.05060503347025889
-529.6741828867687,0.05411102238196467
-528.5536877200467,0.051359103812167684
-527.05989625448,0.05781489168373846
-525.566335699904,0.05586910294201162
-524.4500499677922,0.059069259710300026
-523.3301604569792,0.05947157579243443
-521.8334441977316,0.05898976761034429
-520.7138579795987,0.060643849728313465
-519.5944015209692,0.055781494760939285
-518.101994718601,0.05825338162772962
-516.982840944444,0.06519224882114295
-515.8638168546199,0.0671052094892209
-514.371986427091,0.06367270180415031
-513.2532648464049,0.0632933293554712
-512.1346728749438,0.06494540184661429
-510.6434184884174,0.06643103660398333
-509.5288562678409,0.07425241691325116
-508.4106957327497,0.07247048878153747
-506.920016478106,0.07077404193495675
-505.8021581020775,0.06747505551230171
-504.68070363869157,0.07490668323763008
-503.1943253050903,0.07916793095402774
-502.0694492937364,0.08500989991107975
-500.9558767152684,0.08131060374008532
-499.4663484513261,0.07740672866498911
-498.34563004194763,0.07537792230409693
-497.2362098167049,0.0845192404276645
-495.7435335891183,0.10018073695864284
-494.6269692250523,0.09605129543452601
-493.5142553313005,0.09081369857546367
-492.02215491551885,0.08751182234150474
-490.9060212459764,0.08759025585339515
-489.79001673619734,0.09024806440599795
-488.3022115996033,0.0866993375429162
-487.19022717174516,0.10239943548097703
-486.07093423632267,0.11191078225961823
-484.5799850200136,0.10409228078110408
-483.468429783346,0.10934663193427815
-481.98531654778907,0.11652972636328644
-480.8666277203655,0.1283564079463172
-479.7517846402574,0.1443948692234919
-478.2618124080752,0.15066741089692778
-477.15098549840366,0.14199998915008835
-475.66512962729826,0.14058769700531018
-474.5546019808885,0.15720172455124445
-473.0654330290462,0.1688811596493068
-471.95520495284933,0.16689470064008105
-470.8376798105436,0.1842029711790586
-469.3565090572755,0.19420660209258342
-468.2429968069768,0.19359352180003983
-467.12590219841286,0.1924170968153839
-465.6415915457962,0.19320662546271852
-464.5285086542596,0.19180932724665692
-463.41555439330904,0.19659589303507496
-461.9355244945525,0.1884565234326842
-460.82286985637427,0.17827866906203838
-459.3358222489976,0.1674155096148544
-458.22717560350924,0.16782139666654805
-456.74052882163977,0.17294957070719355
-455.6284743507759,0.1663703122295044
-454.1459348672268,0.16316250470326954
-453.03418008391907,0.15750683167024943
-451.5520401030123,0.15711531921113567
-450.44058488613365,0.15050699635353346
-449.33296222751665,0.1579974933913241
-447.84768847489823,0.15396624992760055
-446.7403642118912,0.15811309775650195
-445.6257617997016,0.14925415057278468
-444.1484645798801,0.14054316347534704
-443.03786417285227,0.14252155642020914
-441.92739196633454,0.15000174126151178
-440.4469617423054,0.14022345097430702
-439.33308822108415,0.12201081535011242
-438.22674355225524,0.13026270645854254
-436.74318341295657,0.13520429515547402
-435.6371366234839,0.12292799293530507
-434.5238200071538,0.11836298591370234
-433.0445289262204,0.11978377025699029
-431.9352099527239,0.11940398556108824
-430.8260189579287,0.11630683451822663
-429.347296671242,0.10847219696649286
-428.238404207311,0.1046582956108842
-426.75638435550894,0.13358785691004893
-425.6514858278496,0.13252195812581744
-424.17355930213796,0.11867919907985856
-423.0689576453859,0.11557537469530833
-421.58773465239756,0.11023557847246719
-420.47973705827854,0.1010378506536173
-419.37186721427304,0.10079308058003453
-417.89490610648164,0.09550337136586415
-416.787334260165,0.10155938408410017
-415.6798900903391,0.1093734909636522
-414.20349643362243,0.11886126417145285
-413.096350089764,0.12212921630150357
-411.9893313488305,0.11565831379077678
-410.5135048162339,0.11427884541670595
-409.4067837296793,0.11613768188271813
-408.303878605913,0.11213946058694592
-406.8286183040863,0.1266093185822336
-405.71863436313265,0.11760359248697165
-404.2437711918658,0.09895246915295426
-403.1377724806337,0.10507954362568357
-401.6633057134136,0.12234572075313635
-400.5612897052866,0.11960809386054927
-399.0872186163753,0.1259600249628132
-397.97812937748853,0.12893237690328904
-396.8728523345491,0.10651350532014307
-395.39934759778424,0.09440128364692126
-394.2943675070863,0.08102106732872259
-393.19319727656034,0.07917552704186286
-391.7165753687587,0.06766734390333087
-390.6120192880008,0.058953627260178824
-389.50759036263906,0.04604676296979687
-388.0352162214778,0.04052443803397119
-386.9310839066522,0.03908810674541823
-385.82707867405264,0.047956617051553574
-384.35526934279545,0.05628818031942011
-383.25156055007864,0.06433190659408482
-381.78014639240706,0.056136543208132786
-380.30895797675714,0.05569507731960157
-379.20571477697183,0.05860228941965324
-378.1025985059438,0.05993834678710885
-376.6319742181236,0.052363504566907325
-375.5291540290316,0.04872335569366702
-374.4264606957056,0.054540015100421335
-372.95640021130566,0.06680459111126774
-371.85400278966347,0.06302228495292865
-370.75173215085306,0.09853389194953878
-369.28590860727786,0.06662643902837073
-368.18026024846165,0.07710978233699091
-367.07841206116456,0.07650468457402057
-365.6094782113683,0.09323168339583189
-364.50792559564627,0.08370830391059303
-363.0393857619903,0.08570381580433259
-361.9381285989307,0.08893171436621652
-360.47365270729614,0.08912443925148322
-359.36902079365717,0.10802918069157592
-357.9012685168509,0.08818781909142623
-356.80060190261696,0.0786184381091095
-355.33691128318503,0.059788213808092176
-354.23653934377165,0.05289820245171561
-353.13262656431954,0.05236343859306024
-351.6658297551194,0.06796732487706965
-350.5658795974968,0.07238466343556527
-349.46605580077784,0.07196895321953505
-347.999820595588,0.07586331356764879
-346.9002915563031,0.06601615637174443
-345.80455327144733,0.06839864149216948
-344.33887878666746,0.06221004069490452
-343.23610671897006,0.06365011208655855
-342.137124772075,0.06089644410307337
-340.6720118077271,0.057235826910193445
-339.5733242799246,0.06150879636489709
-338.47476289551844,0.05756641186043333
-337.0102105684899,0.0564320719205415
-335.9119434342034,0.05680505505499068
-334.8138023709184,0.07335963532020755
-333.3498103594778,0.05681244318371634
-332.2519633774669,0.06314214872978635
-330.7883633956317,0.061026391241443316
-329.6908103767764,0.06165417944383194
-328.2312600082335,0.04660489965254577
-327.1303430933486,0.049958121990378704
-325.6675266984728,0.04997465377390346
-324.5705612518312,0.04762651367952875
-323.1081364144829,0.04758840872907665
-322.01146457702396,0.0462303629239866
-320.5530859447866,0.03539385233144414
-319.456707179467,0.04147472612453617
-317.99141060006826,0.043125768921480324
-316.8953256274542,0.04619843398137459
-315.7993663503066,0.048695005027461116
-314.3382828030175,0.0788258448854751
-313.2426167312143,0.07398339208519793
-312.1470762828242,0.05378985054467297
-310.6902020965117,0.04991454921934971
-309.5913036507453,0.044507234895452594
-308.49618179107296,0.07406438694675933
-307.03621457641515,0.07041276353266332
-305.94138558612013,0.06952770584870481
-304.4818087856389,0.060452461603136755
-303.38727254725603,0.06837468251214586
-301.92808600437377,0.07532309852334401
-300.83384240048935,0.06580170094152263
-299.73972417547344,0.06467839566473418
-298.2810948719885,0.05777528858529394
-297.18726911385875,0.07758327454897951
-295.72902968805204,0.07065977824429075
-294.6354962795602,0.07030921169220712
-293.5420881278937,0.07106293365657954
-292.08440539909316,0.05226445013434294
-290.9912894296691,0.05336839596782018
-289.5339961991167,0.057919017922703105
-288.44481483330947,0.05123617303391153
-287.34847352549986,0.05057246737388356
-285.8917364502618,0.05500653996922896
-284.43522174800916,0.0545954274851181
-283.3429816229664,0.06550344597830557
-282.2508665326095,0.06679422412999768
-280.7949075401048,0.05837425883191394
-279.70672331771084,0.05314406350622744
-278.24751392898935,0.04095039145932815
-277.1559820500711,0.03982076949877812
-276.0645750842536,0.0396067527785911
-274.60956006870117,0.054717230120545385
-273.51844448340466,0.05983402993495311
-272.42745373976,0.050092309054907865
-270.9766294497519,0.04751277611572796
-269.88229404620387,0.05510771578827561
-268.79171928667915,0.05143111491638306
-267.33781365736144,0.0625455329883546
-266.2475299451743,0.04737896694011896
-265.15737093189557,0.04543789160722946
-263.7040195199622,0.05641793935728459
-262.61415138762044,0.05631245483706328
-261.5280401542535,0.05803914097571651
-260.07524208913077,0.05842101667968818
-258.98215758146216,0.056199388104846676
-257.8928293477963,0.05147067203366499
-256.440585420369,0.050410478992055675
-255.3515477352156,0.05557617638221407
-253.89969112831335,0.048219768204069736
-252.81094387544863,0.04638662482515833
-251.35947443414165,0.04329782149035827
-250.27101749739606,0.04662315987108081
-249.18268494630033,0.047788984013691464
-247.7317683301103,0.049615334080386465
-246.64372592929146,0.05263777942183447
-245.1931961027821,0.05136217162058853
-244.10544373622236,0.04978148538804091
-243.01781563455944,0.05106501340777406
-241.56783809649514,0.04125397455399357
-240.48049986346317,0.05520782615703803
-239.03090873965016,0.043469336285561204
-237.58153835463438,0.03318253559067423
-236.49465539537954,0.03432109679768265
-235.40789655207388,0.032625915139199255
-233.96269956537395,0.04045852998994511
-232.87260847142534,0.03678467818947601
-231.78626319444172,0.04359003363023501
-230.33799574747388,0.04782092866965641
-229.25193982646977,0.0518748473797405
-227.8040581104023,0.045044311763823036
-226.71829142978547,0.04921578796153741
-225.27079529053424,0.04737095762355827
-224.1853177347748,0.055084685440428036
-222.73820701833705,0.05523483365200222
-221.65301847196477,0.04876788802856375
-220.2062930244271,0.04664536260374047
-219.1213933720287,0.059557172623120005
-218.04023321002353,0.06503558884273505
-216.5904421657863,0.045632006612175
-215.50595501899429,0.06374668924390883
-214.06016458419822,0.04913488515688299
-212.97596605136314,0.04941074547295079
-211.53056035836877,0.047548427068405265
-210.44665032428875,0.040258557168246695
-209.3628638972849,0.040308164310225665
-207.9180075690814,0.05565514849056309
-206.8345094763754,0.05232170430468671
-205.751134920286,0.05137106828590588
-204.30682764373134,0.043929680583632356
-203.22735134045354,0.06203352702754017
-201.77981813101002,0.0525030853792209
-200.69701979987974,0.055032550780398315
-199.6143448857162,0.06948354130479559
-198.1709702789775,0.057162983819916774
-197.0885832556867,0.07012587766435191
-196.0063195790467,0.05454548322653523
-194.56349317966152,0.06788190830835268
-193.4815172298978,0.0770524133703166
-192.39966455652862,0.061209914359588134
-190.95378063051845,0.05632450015110889
-189.87582094186314,0.062036876932573606
-188.79437903767737,0.06696941751644772
-187.35625217073564,0.07303285882880807
-186.2714936115155,0.10513058402183756
-185.1904622426155,0.10846878399001428
-183.7492785926678,0.1224357080113532
-182.66853445938938,0.09878807958439997
-181.58791339204285,0.09629593970656625
-180.14727670182472,0.0976307386709011
-179.06694270659938,0.07915143042315967
-177.62668870293948,0.0814626842263661
-176.5466416654574,0.07956534627320823
-175.11036960208224,0.0925618041736983
-174.0270100018354,0.086662777867559
-172.9473727056914,0.08808630793830831
-171.50804744910099,0.09034575314999217
-170.42869683317159,0.09150173713537955
-169.34946904524324,0.08881283593476713
-167.91068969087056,0.07891968587350102
-166.83174842007656,0.07836844245767319
-165.74933405096266,0.07559621854052335
-164.31469614475256,0.081224617751564
-163.23616398626692,0.0857936590097861
-161.7983119531701,0.08049316696129342
-160.72006603487023,0.07378138062989195
-159.641942756053,0.06417361063156093
-158.20463578732958,0.060953065151607186
-157.1267985859485,0.055642239574942104
-156.04908395432506,0.05119681380819901
-154.61232174009925,0.04478645167195977
-153.53489302328703,0.050984060223300695
-152.09851195295965,0.06222316816376263
-151.02136903719608,0.06838172674324344
-149.58177923167602,0.06601222774181659
-148.50851173069915,0.06309121877225347
-147.07289249330793,0.05608656184416168
-145.99632083859225,0.05710396975795153
-144.56108229040407,0.061387459342663084
-143.48479609580423,0.07232644850626697
-142.04993808542108,0.05886803805994211
-140.9739372374184,0.0542138604167312
-139.53945961351278,0.05647080764992165
-138.46374399864547,0.06331537138174032
-137.3881505918297,0.07777968184034562
-135.95421611483715,0.08011262118981188
-134.87890777917156,0.06807015682324369
-133.44535332149147,0.06230802596298653
-132.37032994366064,0.052232030099783625
-131.29542865594183,0.05930565088798201
-129.86241682099018,0.05207919823291125
-128.7878003293296,0.047394781178307255
-127.35516814699697,0.06830061220282732
-126.28083633822295,0.06412246615959649
-124.84858365765616,0.06367260208437739
-123.77453641865657,0.05494001937720538
-122.70061110352553,0.06352094205083285
-121.26890030681153,0.059742205360885516
-120.19525939997115,0.05855306216136125
-118.76392773899904,0.05558223749336873
-117.690571127489,0.05786972056117765
-116.61733632226579,0.06259167397283191
-115.18654602258542,0.0620709044314828
-114.11359535141747,0.07238919994825678
-113.04076641744558,0.07398388001096295
-111.61051717198649,0.08002434485803901
-110.53797221091676,0.07611651026531355
-109.46554891800382,0.06405120370021777
-108.03584041992053,0.062241919538470344
-106.96370093887592,0.07230976429886775
-105.8916830570057,0.0721890240211205
-104.46251499968855,0.0706169062650428
-103.3907807687775,0.06901941319437195
-101.96199083769078,0.05465438430845432
-100.88696884602057,0.05506552003700336
-99.46212819026985,0.057207449894520986
-98.39096092364574,0.0538014680354422
-97.31991509083352,0.06330701583853411
-95.89204284177687,0.06288659225200376
-94.82128027424059,0.06548734939772896
-93.75063907170731,0.07119656636278361
-92.31973816084039,0.07084782883834066
-91.25294812492308,0.06640935288942391
-90.18271132341148,0.062067971689646236
-88.75591756881546,0.05150286185291548
-87.68596371170744,0.05314960628046094
-86.25598137011119,0.06299650523067538
-85.18987611661399,0.06082083471352868
-83.76383658126633,0.04824348559858269
-82.69444827645081,0.04706816975076702
-81.26878562648857,0.04593037401445872
-80.19967992968394,0.04951169047374251
-78.77083107063433,0.051733921777889796
-77.70557081490409,0.05596238133125037
-76.28066148762007,0.04950828257282101
-75.21212067085109,0.0630435682987687
-73.78758778101437,0.07716618410289285
-72.71932923639754,0.07323473614903879
-71.65119163131568,0.06839327871407655
-70.22719625054887,0.08172036491007001
-69.15934075787283,0.07453634767239523
-67.73572145246501,0.06669458203913807
-66.66814796043522,0.0695509137507158
-65.24490458142789,0.06459583208816143
-64.17761297835797,0.06094916769717598
-62.75474537686303,0.06116044918218371
-61.68773555111811,0.06802230499642878
-60.26524357833426,0.05825659878450726
-59.198515418339085,0.06033992037214996
-58.13190793809862,0.056915496475923144
-56.706397699496286,0.05692614811912826
-55.640072127790965,0.056454169899380006
-54.5774209837369,0.06155959441485643
-53.15600141659119,0.07568065111690182
-52.09007740161699,0.06525320193462768
-50.66903288995111,0.05946045822055792
-49.603390110927236,0.05538244736821162
-48.5378678275226,0.06964351393289782
-47.11380784787073,0.06261525580535818
-46.052117645532405,0.05949984731350877
-44.986996866624736,0.05287531125575815
-43.567023124479,0.058666967106322555
-42.50218326370947,0.054204310009471054
-41.43746376240236,0.048814563327018806
-40.0180249512293,0.05347764356362127
-38.95358620933584,0.05839247634182611
-37.5309742766018,0.057225013970798294
-36.47036357648731,0.06298300073160021
-35.05167316099833,0.06186401647874678
-33.98779560486798,0.059059212012010226
-32.5694791652835,0.05696969326957944
-31.505882035630005,0.07127077535205133
-30.087939424091942,0.07376305512635636
-29.024622610050212,0.07157786766746312
-27.961425897349464,0.06948724238485562
-26.544017069557228,0.06814836233936619
-25.48110051419641,0.06820776177394822
-24.064065155698945,0.07476638937254831
-23.001428646964744,0.0768162672564222
-21.935370603202585,0.08557243196488865
-20.518869049400443,0.10379168903681417
-19.460173403317103,0.10878042157539303
-18.040504372069268,0.12077657072666119
-16.982087571286723,0.12745367035108024
-15.92025058618613,0.13551779749125137
-14.501115646741196,0.163768388437273
-13.443097005325999,0.1744733518404709
-12.0243357508372,0.18493694187814766
-10.966595687312468,0.19393582203104864
-9.905437588052106,0.20065860359466517
-8.490746374555362,0.23232204257953848
-7.4263315649639,0.2300224122090329
-6.369108568562878,0.2479225472349294
-4.954949304054575,0.2628052912086272
-3.894469439774326,0.2618196190413617
-2.47714815980861,0.26680290157846637
-1.4204815810203113,0.2785229314915417
-0.007066541183589278,0.312552682464925
1.0563881375615178,0.332193862304517
2.4694307541850944,0.3382509812424361
3.5255413545059184,0.3677185357214805
4.938212757010481,0.36417677355965017
6.001107959237197,0.35320108437421577
7.4134072323826405,0.34379263464083953
8.472492378421709,0.3371432009857876
9.527928451755534,0.342489336534252
10.943226811912155,0.3218391389967625
11.998385326654633,0.30001481155892484
13.06048204227357,0.2734170954403403
14.471720413249948,0.27127226554811534
15.53001003959777,0.27203734652645467
16.940877377210608,0.26010486839026475
17.99536227674759,0.22298701144751695
19.05678098599315,0.2095623045672748
20.467118529726864,0.18355604384557558
21.521207486303894,0.16120570778506396
22.931174881293597,0.1501465324645509
23.99203571970792,0.15493683425353638
25.39810832631042,0.14281609927837324
26.455167064174116,0.1252315786113357
27.86791634170065,0.11330558053413083
28.924696947953176,0.111735052600905
29.981358558525965,0.10098448796722007
31.39005563630379,0.10270485514333101
32.442918585894994,0.10034744502776054
33.499184085716706,0.09559357619260345
34.90735311988363,0.09410308409385701
35.96686095880925,0.08570020864572331
37.02272977823464,0.08447161290614104
38.43037000938294,0.0815426303685561
39.48596156267781,0.08135382182183744
40.541434321070916,0.08422411044276303
41.94854657483952,0.07459675631530926
43.0002251014934,0.07644673805670396
44.05881914325066,0.07627304876241267
45.465403716637766,0.08182650897904906
46.52020368251799,0.09214677620209381
47.92641905623101,0.09230874085446233
48.980942176868,0.09221414300718495
50.386788496244236,0.0895078678295442
51.441034880613856,0.07080637923628091
52.846512290922846,0.07136133868311485
53.90048204794676,0.06839496289363835
55.302078185448806,0.07339595830550208
56.35577181893408,0.0737616367304417
57.41285869684774,0.07993979858962248
58.81744078944733,0.08351899344753626
59.86722839234466,0.08085434204210297
61.27495287132519,0.08255845525604773
62.33148489373649,0.09029882229111022
63.73182043219964,0.07624450970294419
64.7845664330577,0.0779406423046831
65.83719411902014,0.07747068492733626
67.23700565264474,0.07836178681224187
68.2928653848242,0.08460524473557055
69.69581704018078,0.0913953049552199
70.74789285361712,0.0940756291575421
72.15047673863045,0.0885146280079283
73.20227677853842,0.09175632253715964
74.60449303780311,0.09046625968157834
75.65251252755431,0.08956370549730969
76.70742367838086,0.08734244046886047
78.10561104207716,0.09204337149335265
79.15674219103067,0.09994746531648196
80.21125847686801,0.1000459682368759
81.60892251774312,0.09235666241604695
82.65966026810713,0.08723575136515196
83.7102800419604,0.07701449547348752
85.11442426687897,0.07265548963341278
86.161267495003,0.07681773965202907
87.5650439399289,0.07306107213420285
88.61511302644357,0.08798725631358205
89.66156460739826,0.08897258280615913
91.06131678498174,0.08643351465599114
92.11449218688578,0.08310872621999683
93.16405067304937,0.08877932444949704
94.56327878119484,0.09619565706001132
95.61256248294501,0.10115274961978729
97.01142428382111,0.10308741999754646
98.05693680780831,0.09267662477674586
99.45892894648654,0.08063228080216413
100.50766340305775,0.07807711031241764
101.90579302078837,0.08520321112132008
102.95425301647478,0.09240589735597211
104.3520167581856,0.07896869505250022
105.40020240071355,0.0895350966970587
106.79410717550773,0.07869892960249993
107.84551180704604,0.08241339085289308
108.88981325209375,0.08707437267018449
110.2866895575375,0.08574339908658764
111.337701291057,0.08671204472881722
112.73421169043229,0.07528803994854594
113.7779668862498,0.06353350645862191
114.82509570881689,0.08321287864470871
116.22457461282536,0.09430846911731708
117.27142921342246,0.10300570301032759
118.3146775614888,0.09738852236075882
119.71363372558928,0.08705900530182441
120.75660930854163,0.08624022700033832
122.1551997289519,0.0895229934301025
123.20138975913477,0.10408837346312932
124.59264088936955,0.08468203015213503
125.63855784742219,0.10550850220491023
127.03641721061194,0.10804865617198024
128.0785751397556,0.10603463895011227
129.12758651496782,0.11044122133136862
130.52143915286206,0.10716103660394252
131.56669204280593,0.11487960610493358
132.60834428705945,0.1122260742652592
134.00516027670466,0.10460073529052168
135.05002306314455,0.10416958840075044
136.09476886112074,0.10835866435461443
137.48758131031698,0.11440784029636059
138.52857282949884,0.10888361668678846
139.57641018989776,0.1272432270738426
140.96522250846093,0.1254846463690421
142.00930613233194,0.10764689251237289
143.05675259240334,0.10749610355380947
144.44852601686313,0.10957588587976794
145.4922198022309,0.11362729581954523
146.88015157644784,0.11134548087338657
147.9270511434356,0.10943959446097205
149.31809794220487,0.10626802177747426
150.36124686501532,0.1145809254809398
151.40427908706863,0.12814771562870877
152.79480721582158,0.1331620248778055
153.83756721227346,0.13707230283653718
154.87673528908167,0.1486181766232792
156.27022032200057,0.13285025821763605
157.3091172322506,0.12514239286256254
158.35484632683608,0.12017009778710944
159.7408645146169,0.14125941952786142
160.78632078142962,0.1378985181739913
162.1754499492523,0.12189910453742123
163.21368875386312,0.12401671299758367
164.60245609027137,0.13235046616156268
165.64736702174145,0.12784007712098877
167.03577163341228,0.13030145847855887
168.0769393036882,0.12399925070492546
169.46498184985177,0.1148901401344839
170.50587802409945,0.11606697967900978
171.89355864635803,0.11187574791764872
172.9341834307642,0.11081053751453879
174.32150227064952,0.12167036165989463
175.3618557713359,0.11336210045614568
176.74881297031737,0.14039387613638055
177.78542854528234,0.1356959564242941
179.1754909928145,0.1369561065272114
180.21530224420965,0.14365575277088422
181.59807125702713,0.12737727196261647
182.63761192976187,0.12894855271957356
183.67703650670265,0.13532745303424554
185.06621942142755,0.14852596606817198
186.10537279700995,0.14522211023275644
187.14441014167429,0.1357672091522421
188.5296128089443,0.1383683627989594
189.56837949036154,0.1304597293164894
190.94975949619504,0.12258551291786624
191.99171746772907,0.1316551888724944
193.37619864830765,0.13359359424602066
194.41442432041936,0.12294424011582791
195.79508492421382,0.1200903771505282
196.83650029495286,0.10286366167451864
198.22026055238115,0.103618684786638
199.25448687978167,0.12314649307660473
200.6378874013225,0.12988567997879297
201.67876059499167,0.1295608970165443
202.716059805383,0.13913020726301537
204.09548845535357,0.12681776065414085
205.1325180669485,0.12159796354308405
206.17288818951133,0.12022557073265915
207.55525968439713,0.1143572416638476
208.59190340116305,0.10635087157571972
209.62843150708778,0.09634561653158626
211.00683478800545,0.10681771846225598
212.04654759847017,0.1258066534326277
213.08269047455858,0.13454948098249536
214.46403460390096,0.12881252452855457
215.49645522756498,0.14124292143689005
216.5322134734405,0.148319607790853
217.91649668383877,0.1433818030664428
218.9485337253692,0.14063959923542133
220.3324569307458,0.15185125865389826
221.36422559196313,0.16456192903083725
222.7477889327358,0.1574889398318681
223.77928931831434,0.15746561557074806
225.16249293483304,0.14140192753534467
226.19717389441507,0.14838668133595317
227.2282912105521,0.12923617211646463
228.60753333003328,0.11111501028403345
229.64183047306904,0.12286368010004126
230.6794594780098,0.1393727821366256
232.05818900319454,0.1360246246874528
233.09210177544804,0.14388218435120545
234.1258993933935,0.15038836415393259
235.50411712164203,0.143196243153277
236.53764612100196,0.12381969199255624
237.5710600301627,0.13724342863077477
238.94876624639252,0.13753346707290728
239.98191168649822,0.13347865162023098
241.01149885679828,0.13166312743746697
242.38869435681104,0.12380927906306488
243.42489918371555,0.11510784870802046
244.80173648282178,0.1199500581844845
245.83423036203675,0.1268921725822331
247.21071011065473,0.10977838692284109
248.2429358792302,0.11417415310083669
249.2750467752167,0.12694839663572277
250.6510159789758,0.128614760260203
251.67941962774964,0.12991530075037472
253.05503212929756,0.13828307336003678
254.0866075892304,0.1393867279608688
255.12150629553693,0.1309664762311945
256.49317072417784,0.14979282278812986
257.52780082986953,0.16432056194907493
258.9025458842579,0.16507787074970326
259.9334708854674,0.14037351901929845
260.9642812311479,0.1384860877026559
262.33851670539775,0.145277867568008
263.3690595958796,0.15273779005568552
264.39605332390556,0.15740303440479053
265.7732140719617,0.1382647647395312
266.80337506412474,0.14017516879477504
268.1767449021498,0.15161567569719434
269.20663869178213,0.15458303841907772
270.57965232907475,0.15876013984512255
271.6092790201242,0.1670828119758915
272.9819365952481,0.16832601244704673
274.01129629160573,0.1713263434751455
275.0405415934614,0.17325500589854345
276.4092606291602,0.17007875299969946
277.7846366147201,0.16794987981379148
278.81346263316357,0.15525580757405444
279.84217434605307,0.16337093706113104
281.2136121875178,0.1690338993053372
282.2386293010445,0.17259901910380668
283.6131396535591,0.17682319746788777
284.6413181923144,0.18558504702721645
285.6693825333993,0.19251063794830003
287.0399573802354,0.20190014945496254
288.06775533406625,0.21248271441920763
289.09201373045875,0.2203847765403034
290.4620818209772,0.24802761301409312
291.4929243171959,0.26350163085808825
292.862636983726,0.2842922109786981
293.8897884279695,0.29165703140282434
295.2591463155303,0.3168723252439683
296.2826089652131,0.3312365034542026
297.6550349736453,0.36978932625295224
298.68165445615546,0.39711859646955705
299.70816000062376,0.41052469590920987
301.07665685576137,0.45984850338320216
302.10289661857297,0.488131674169811
303.1290225065543,0.504212640506802
304.49701325133645,0.5269071301883859
305.5194541599698,0.6114640862835196
309.9669530240662,0.6166594736932766
310.9887891783507,0.6229698455061279
312.0139293236217,0.6267342544802974
313.38402243836657,0.6113572276289696
314.4054808936099,0.6159934309195298
315.7718039697657,0.6209355930996471
316.7998288906447,0.6523397987036096
318.1657979990258,0.6321364438893634
319.1867280273223,0.6355671014081137
320.555758102529,0.5873583837326751
321.5798374804651,0.5798247371563741
322.6038033429568,0.5986975195171039
323.9689146126545,0.584760355695189
324.99261567916756,0.5896246282186828
326.0162032931336,0.6043081772123641
327.3808103292731,0.5936890095816862
328.40413329395847,0.586812800009649
329.4273428689425,0.5750575562914566
330.791445950847,0.5583585695297996
331.8143910231426,0.5540822553211502
332.8338135176142,0.5285902070104771
334.1974134279339,0.5167086141535123
335.22338956450983,0.5074235968999541
336.2458436895541,0.4706132118442504
340.6751698602521,0.46128113037669616
341.69702022755973,0.46448200121712413
342.71875744982987,0.4420910259033971
344.0808977752714,0.4165620714795836
345.10237106552023,0.42442265105010946
346.4607553292024,0.4473294261203006
347.48536901026324,0.43598334874186684
348.8468057896455,0.45629185346030815
349.86775152256433,0.46079783126839835
350.8885842606511,0.4653872545232413
352.249518840799,0.46137713795378754
353.2700879972352,0.4464439477602277
354.2871428881787,0.4514497659195097
355.65097688008115,0.4397575194028629
356.6711696683479,0.42602390606101087
357.6912495867611,0.43671562528720637
359.0511806016931,0.43183030808760164
360.070997229949,0.4322049814281113
361.09070105076626,0.43700640062075896
362.45013069931275,0.46503498604727256
363.4695713755647,0.4734153938280717
364.48889930674954,0.467227052529425
365.84782786611396,0.45039534182877683
366.8668927982118,0.4531954114361245
367.8858450475704,0.4605151592919484
369.2442727947583,0.46946016885837943
370.2595667461685,0.4620063291276441
371.62103953377243,0.39740606958615693
372.6394661773976,0.38894796451184344
373.997193252513,0.38417856596833566
375.01196355272435,0.40609451514823425
376.3727341881139,0.40719642614696727
377.3940284492784,0.4140815920516567
378.40842458722716,0.4000215136834976
379.761909631625,0.45792894244173776
380.77943655731974,0.4265711385728562
381.8002422489479,0.4332543304633603
383.1566195579419,0.45099097439945496
384.17377142235904,0.4357728839241079
385.1874209761521,0.4606461997744092
386.54668882754686,0.45114709896107497
387.5634662123934,0.46247462604579265
388.58013129369783,0.45275528124982223
389.9321218751032,0.4457808199422513
390.95191318523257,0.4441932150911739
391.9682040557347,0.43624981456084727
393.31969703281953,0.45890208495913903
394.33572645263797,0.47678694298561575
395.6936439258792,0.479902551532248
396.70941124826027,0.47996286037794317
397.72506643439425,0.458469243209652
399.0790989471724,0.473918389658245
400.0944925542613,0.4733513759748313
401.10977408698403,0.45066573518610187
402.46330849144215,0.4086945365199711
403.4783285894461,0.4151172650394111
404.4932366749132,0.43515835753662885
405.84627324585864,0.4724535556500986
406.8609200408329,0.48000779874721083
408.2169897629852,0.4727313178739288
409.22799389709576,0.451861810836418
410.5769533602763,0.47378201051030017
411.5978387070075,0.4437531898284898
412.60847113130995,0.4438559718329816
413.9603140218307,0.42292198492012434
414.97406572932044,0.4619691098014141
415.98770563415866,0.47280159625128737
417.3390516240062,0.47133826734805
418.3524307279122,0.4961508652145778
419.36569809079816,0.4921928724166861
420.7165474538933,0.5034069565367116
421.7295541596015,0.49788769545420736
423.08343205280073,0.501376488599377
424.0928021959382,0.5013027182356345
425.10543670868793,0.46920415520095754
426.45544243437814,0.45097127987287416
427.467816534088,0.45045065635989423
428.4800790589616,0.4766419628150988
429.82621536913246,0.49824603035101583
430.83821799618175,0.5200945641294289
431.85348189372195,0.5318374639035383
433.2024961162408,0.5227094186893753
434.2141267319762,0.6929991768417648
438.59657174735247,0.7318752619782655
439.6109781006107,0.7294742826109664
440.61853322974264,0.7397693473751997
441.9662601303008,0.8049338395673333
442.97355674117705,0.8615582450862777
444.32430606936947,0.8827886056412878
445.3347117258893,0.8928418923802552
446.3450061328227,0.8982411907884561
447.6918923189036,0.937474486413083
448.7019272149075,0.9503484691545521
449.71185092254717,0.9608605420103784
451.05824293812225,0.972564312680585
452.0645419144471,0.9408352989663122
453.0808254815411,0.9275931506584463
454.4233586069638,0.9456975109466176
455.43265259388124,1.0
456.43847175615787,0.9400242198621293
457.7872400048652,0.9515205059947067
458.7961638429167,0.9279645636499829
459.80497667601566,0.9461760272060247
461.1498878107702,0.9280009952256908
462.15844170354177,0.895181920791538
463.16688465240946,0.8374418830516277
464.50794190384374,0.8194151937919044
465.5194868540523,0.826705339513263
466.8635599072658,0.7776067247354523
467.8714853598691,0.733178737555187
469.21521354836426,0.6903137759156543
470.2228804022017,0.6782278572740743
471.5662638586903,0.672043169534372
472.57367221326734,0.593269634662602
473.58096981290083,0.5232745650856808
474.92386102517196,0.5213550602843847
475.93090026761075,0.559325455112349
476.93782881597025,0.5391197518517509
478.2802280545271,0.496726370228678
479.2868983876519,0.4859622947125736
483.64785830315816,0.42421716251480723
484.65393880289525,0.40954579005456787
485.99520752739136,0.4083866804346017
487.00103013801635,0.379395582131651
488.0067422550907,0.4134748565919821
489.34751989713004,0.4070545641827949
490.3496229356004,0.37781650587276405
491.69340831149117,0.38304100171631844
492.6986050326527,0.3773745698890002
494.03869561222996,0.3823860923782789
495.04363478399523,0.3792802811138867
496.0484636077478,0.39915697044835136
497.3880637517005,0.35443262038768975
498.3926351674286,0.36134317456980575
499.4004443150627,0.3617720931553405
500.73620627321594,0.34835020467126643
501.74041013473646,0.3413750377027261
502.744503769328,0.2926494587972742
504.0831238493774,0.2792446544324423
505.08696035837636,0.31883356931367224
506.0906867009231,0.2963490852013317
507.42881715229794,0.30278292946380464
508.4322865103123,0.30685623931533396
509.4356457623078,0.2843983436956758
510.7732868535976,0.27922011906598154
511.7763892620178,0.2922154373274854
512.7793816248067,0.27604448450406727
514.1165336244028,0.2836979142682039
515.1192692844704,0.2823995556198336
516.1252368609355,0.24628024935317228
517.4585581353523,0.23532749965452884
518.4609272481651,0.22844997297704725
519.4631864359911,0.23501080751778128
520.7993610565942,0.2437723302615891
521.8047036485929,0.22595941625095034
522.8032567248782,0.22935258231404101
524.1389430577887,0.24178302515257705
525.140579678789,0.21795567741712882
526.1421064952737,0.24847623271662267
527.4773048080997,0.2549598968341877
528.4785754842525,0.2681786554153074
529.4797364160519,0.26813984107320277
530.8144469762092,0.26279169839362276
531.8153519080212,0.25943229457200095
532.8161471556043,0.2575277194653933
534.1503702303108,0.26919523717417865
535.1509096181427,0.266071350036299
536.1513393818294,0.2551262756266924
537.4884093336022,0.24625269966688715
538.4852492821738,0.22638871728800364
539.8186442443181,0.21540256603893848
540.8185626668048,0.17642506232219468
542.151616865502,0.1694523909243643
543.1512797643862,0.18185062002560365
544.1508331831426,0.18394796522229076
545.4834008034677,0.1782826406676943
546.4826988385134,0.18349097018464702
547.4818874533579,0.20640681077485354
548.8139687616724,0.19905146453927441
549.8129021325952,0.2052920439073919
550.8117261432053,0.21390641600005747
552.1433214056781,0.23876216789986757
553.141890312055,0.24136800135156616
554.1403499179592,0.22792400391489387
555.4714594005586,0.2439932831407616
556.4696640418152,0.24453323538394384
557.4677594423981,0.24306366801541832
558.7983834109056,0.23985858473515945
559.7962239863209,0.2325660769216635
560.7939553808264,0.2102031067436841
562.1240941008226,0.22454838551298248
563.1215708095375,0.22598152597070673
564.4513700134963,0.2281646624129663
565.4519160252505,0.21794540581028948
566.4457051749372,0.19606502116138994
567.7750195814344,0.1937011161731866
568.7718781733693,0.22041580752581652
570.1008533793672,0.22873421448421521
571.1007794514993,0.2237286280212618
572.0939528817884,0.22410594152316
573.4224437408162,0.2212988638190797
574.4220054116928,0.22715266501389508
575.4181371796853,0.23011567017554685
576.742823698152,0.22765110184790086
577.7387017554555,0.21509788560985227
579.0663698320894,0.19618669657720625
580.061993912871,0.2005208273815387
581.3926415002891,0.2032906336685359
582.384693620307,0.19454652756406182
583.3799550459867,0.2025015578193191
584.7101179772501,0.20719201632120493
585.7018087893442,0.2116582005286981
587.0283165914866,0.1920872729712286
588.0263862978767,0.18701566327240227
589.3492403080583,0.19136835412381462
590.3470556226716,0.20986917229432756
591.338132664132,0.21542324184964298
592.6671335003929,0.19978065566694458
593.6579579783748,0.20948615988996763
594.9833070263455,0.20280394988965433
595.9805049371284,0.21006692682201888
596.9742811848092,0.20505763903789181
598.2958354593842,0.2470201475993666
599.2893588956999,0.24632811519696546
600.6138880778565,0.24823889941500363
601.6071584377984,0.2478333844570265
602.6003203660359,0.2454828785907373
603.9243676295072,0.24021327352515023
604.9172766194793,0.2407328417378034
605.9100772369145,0.23523553471776348
607.2369515173294,0.23956875208517942
608.226190661841,0.23213569331632877
609.5494192669441,0.23748420363778136
610.5417143804046,0.2416993954392312
611.8679130997178,0.21039856526583484
612.8566486178,0.20897340626474722
613.8485828933332,0.25710099558674987
615.1742993848279,0.2596565857195157
616.1659808303017,0.24699602452515754
617.1542490395669,0.24210592892707417
618.4761789822663,0.2601560029577328
619.47080450841,0.26193889001110715
620.4620173379526,0.24033068631758314
621.7834662993382,0.2517021523568234
622.771123912175,0.22857556724209097
623.7652795165337,0.20603796716177908
625.0829460568091,0.23501819596076984
626.07354694194,0.21874506921190714
627.3941801331257,0.23082654914448664
628.3845290576677,0.24020904063753595
629.7048263654871,0.24078457745895668
630.6949234255519,0.24701986498195172
632.0148849781276,0.24864204746756657
633.0047302697893,0.24897097683546968
634.3276550197121,0.2515821089980444
635.3172482795256,0.23993415391320505
636.3034356035167,0.23629436093577255
637.622582283509,0.2453466200198884
638.6151138045617,0.23507797731529778
639.6042399276321,0.22299999634566572
640.9196107151784,0.2179849547357624
641.9084857991504,0.2008232688145439
642.8972531703281,0.20401487606566035
644.2154421424084,0.22653849061964773
645.2072531258287,0.2098418869940806
646.1956612226097,0.2181355547691927
647.5100772169453,0.20104177568715412
648.4982345479119,0.20849062397506307
649.4862842833325,0.21862551624975948
650.8068094312157,0.2164673039111603
651.7946078202018,0.21861589746157417
652.782298672254,0.22863332949801793
654.0957609125923,0.22811159812981222
655.0864925598424,0.22881483010114878
656.4029120420105,0.17703160532458134
657.3901012871768,0.19665955632327206
658.7061864921318,0.2208467479984791
659.6931250771364,0.22350181073446107
660.6766670066636,0.217538001133124
661.9922753707563,0.21647516966783178
662.9821448171169,0.22676021087526804
663.9686181436041,0.2247596821844333
665.2837489720832,0.22284912684508423
666.2666846794308,0.2252697992161489
667.2528006961578,0.22610996449922469
668.5674552023133,0.22209293886117187
669.5566070074145,0.20867764689027518
670.5423651937286,0.1814343777866899
671.8565426834679,0.17505657966603444
672.8420507544347,0.16684643512083955
673.8274516622489,0.17603899142301574
675.1378688557553,0.20881568594837535
676.1263037997293,0.21835306572261387
677.1113476232459,0.21302694239118808
678.4278556349233,0.20419117839344134
679.4093667904721,0.19594888481574987
680.7189769233129,0.1958841418319309
682.0349607783959,0.2418428168138942
683.0160811783012,0.23596601683426707
684.3284506534653,0.21741314232181808
685.3158833003414,0.23742818409981006
686.2999283197886,0.2526186889407356
687.6085425242787,0.24683876859216647
688.592338436383,0.26326210723516713
689.5760274644707,0.24921086991000987
690.887446601335,0.2335289463374113
691.8708863011221,0.2622592893779845
692.8574967725651,0.27839083855229624
694.1717177744736,0.2883811354153809
695.1482472106045,0.27872710833446157
696.1345005347251,0.27626056274978233
697.4449698907918,0.2799526104221024
698.4244218092987,0.27359902388314467
699.4103181799904,0.2512595250930794
700.720313269603,0.25361620825511894
701.702685136925,0.25001753921794345
703.0123483931948,0.22020940834116162
703.9944714327896,0.20940790381856086
704.9797610707076,0.20680615044065345
706.2856772881788,0.21855180621464157
707.26744502356,0.23716092031889904
708.5763029235787,0.24933657285353625
709.5545505071954,0.24421728004018003
710.8663485593615,0.23784968925999891
711.8476191926625,0.2263784083301851
712.8287833532145,0.22850223056450486
714.1335667423468,0.23193343505309424
715.1144828886025,0.22352317872278896
716.0985618076337,0.21871458844061087
717.4028734234348,0.21768079585494193
718.3834349201425,0.21905748954247728
719.3671580654542,0.22726583018317228
720.6709981637499,0.24094666317181831
721.6512052032117,0.24096196944250084
722.6313059429767,0.23466479069060006
723.9412079565487,0.23630031522080283
724.9177943785112,0.23510101444622525
726.2273650079903,0.23510653055317557
727.2069695570341,0.24006541355495556
728.1864679043658,0.24192598308925803
729.4923005280065,0.24010282550495934
730.4715511385136,0.22397445866988627
731.7770535090334,0.2517347323930969
732.7527933097174,0.24892388492718054
733.7349533404364,0.2306129920772783
735.0399841380752,0.22437207309493523
736.0186334931409,0.22622459196055436
737.3233343417775,0.22796327609196348
738.3017362820159,0.24889507805686073
739.2800322160458,0.24453716206021817
740.5810015866191,0.23059179160860976
741.5590505930187,0.2093199971828792
742.5402532836034,0.2103506234506992
743.8407529477116,0.2350178831280601
744.82170766749,0.2501822422004268
745.7992973335548,0.271003797283443
747.1025855313709,0.26741971766139044
748.079928184327,0.27802143589360206
749.382887093748,0.2818771285011642
750.3599828272053,0.28541948844754383
751.6626125730121,0.2841540453615393
752.6362054931848,0.28621296074770813
753.9417621874376,0.2933958495245586
754.915109197566,0.2948566118863926
755.8948608237844,0.2985849705659141
757.1934373484373,0.29984222377999464
758.1729415536836,0.3086291371385692
759.1458321208394,0.30753558727640096
760.4504470417999,0.308521047900167
761.4263447819873,0.295372762619232
762.398884457605,0.28579093096520425
763.7030288740111,0.29224669320634405
764.6785746825258,0.29044830927017995
765.6540149486563,0.29259579801004776
766.9544378227389,0.30698785741314416
767.9296318899179,0.29995662552737634
768.9014703517227,0.2977613780418955
770.2046745222821,0.30912514606837865
771.1795170383268,0.30847731690015984
772.1542541260943,0.3129894382241948
773.4504911264103,0.3083900104181559
774.428230761458,0.30718676917072035
775.4026165451486,0.3057293654799464
776.7016337087305,0.30591175173675295
777.6725267342279,0.3054070455618707
778.6498083620542,0.3110439175170513
779.9451113225751,0.31235285764402626
780.9221464644237,0.3110797557474482
781.8958302094754,0.315702194396428
783.1939114986161,0.32660859078546606
784.1673497093865,0.33527841246045575
785.4618595296253,0.32542970232057583
786.4382964507441,0.3074960615227141
787.7357232294086,0.30597773107710213
788.7054276667105,0.3066955116198408
789.6782703168303,0.30370239492346185
790.9752303581201,0.3010741837545592
791.9510696077607,0.30249711636253684
793.2444609401506,0.30173748371720244
794.2168132505219,0.29964642060251295
795.1890605363267,0.2985491207077407
796.4852269085824,0.3011877019782527
797.4572292032152,0.29306544925400607
798.4291265299771,0.2823482934581279
799.7280653942101,0.27763700484390086
800.6997175123281,0.26290964108635756
801.6712647192952,0.2621575230171748
802.9632599791968,0.2563106099446893
803.9378003098327,0.2536308839896213
804.9089979356476,0.25476571425297995
806.2037650256914,0.2566767802968496
807.1747180569489,0.2438303597732237
808.1455662902544,0.24663041037197816
809.4398676116122,0.2400448876627595
810.407236210428,0.24409748398185396
811.3809704116413,0.24131574363037497
812.6748062155958,0.23430046562258705
813.6450609141964,0.23015558267024805
814.9385710053868,0.22663789608799342
815.905348271171,0.23076743041484332
817.1985332376116,0.22759323675875687
818.1715322808401,0.23005693234918898
819.1411939888562,0.23661762328444205
820.433913575197,0.2315204738431996
821.40333126862,0.2108096018754902
822.695725563572,0.1907707260441209
823.661668928878,0.18450307352412282
824.6339685954009,0.1817852842390214
825.9258984013208,0.19970877592445943
826.8947238712105,0.20440296181698167
827.8634448873989,0.19157921369458603
829.1549104546478,0.16592286399524092
830.1233878112245,0.1437692548927749
831.0949885056957,0.1392193811887735
832.3795350765467,0.1480837341439921
833.3508917800008,0.1472321028250194
834.318916869694,0.14729638957827773
835.6094547099696,0.14887993450207773
836.5740106368123,0.16229220059985072
837.8674497745383,0.16997795514009748
838.8349881617943,0.1520602001242743
839.799197696099,0.147160026480081
841.0921723615221,0.15615051658740553
842.0593633288715,0.16938029161954501
843.0264501067396,0.16541539040919598
844.3125141138595,0.17037508233420495
845.282580835,0.17768328168343103
846.2493204361535,0.19139298086827736
847.5349227851528,0.1764670138201611
848.5014198207847,0.20062830024773093
849.4678127790388,0.19810136621777322
850.7561748542937,0.19551988564300213
851.7255453573374,0.18748926266618024
852.691591165684,0.1918469857532791
853.9762709438718,0.1760557793659532
854.9420744477536,0.17404097111183214
856.2328694410465,0.1697309343834773
857.1952116760322,0.16585401327519317
858.4856825089325,0.17253050005162507
859.4477830838163,0.17600918671888763
860.7347127855669,0.170627956039574
861.7062223763809,0.1767408275000112
862.6679775354382,0.17731275071637756
863.9512292902256,0.1720768973779838
864.9191748873349,0.1683752560287003
865.8838007532952,0.16868017614972863
867.1698071492564,0.1713571147434551
868.1341908989368,0.17498839440474892
869.0952568179853,0.1659008383612303
870.3840162584917,0.1668067270745777
871.3480542858634,0.18142126237148007
872.3119886327866,0.18101568181666938
873.5970731769141,0.18133386666076148
874.5575535316832,0.1752373503663161
875.5243545340708,0.18469705917165039
876.8057671935974,0.19021649234776902
877.7691146790936,0.19340959235274074
879.053416888537,0.20374681738667588
880.0165227388599,0.20156335108640047
881.30050282868,0.20239135623035712
882.2665765093518,0.18560155373044737
883.5502341408114,0.16110149594719853
884.5096480787417,0.18520885211563004
885.7961924028821,0.18254336471817464
886.7553657828156,0.17956435504590026
888.0383802405638,0.176625362115588
889.0069343799831,0.16342588037864803
890.2864197830081,0.1543348653794447
891.2483184756067,0.15344384626941876
892.2069080197936,0.1425247637272741
893.4891415730124,0.14245565591006978
894.4506962229183,0.14923002937420254
895.4153522579505,0.14483927230180343
896.6939221233401,0.14513445957276785
897.6551325709916,0.13432859050987353
898.6194433121539,0.14355527388432643
899.9007586079293,0.1355852058635268
900.8616246941868,0.13695099885534656
901.8223876112704,0.13774356439670812
903.1032443773852,0.14038945838293862
904.063766631009,0.12436998840364238
905.3443025727915,0.09843269181350936
906.3045842533699,0.093972487035923
907.5847994913482,0.09683230551306615
908.544840689252,0.09972917239510685
909.5015792280684,0.10055901186787229
910.784536149438,0.10354373697828227
911.7442339573364,0.10645966297824068
912.7038287841589,0.11053560808640178
913.9831283891165,0.10884814996001578
914.9392853135186,0.10334418636803931
915.90173466747,0.1122926236950096
917.1805768242423,0.13211864380208077
918.1395884046091,0.14569022862572115
919.4149144164027,0.12925500634170325
920.3736863338141,0.1326844773367122
921.3355508108162,0.12511035465503928
922.613615868579,0.12499390561377416
923.5720447340798,0.14274874206948637
924.5271765730915,0.1500138579630076
925.8047853012838,0.15570610780435304
926.7660654343194,0.18100529533804482
928.0401611071729,0.17644274757556264
929.0012007827554,0.17177925793818102
930.2781699648466,0.17745952235810983
931.2357770778073,0.1778388056409461
932.5124268949891,0.17583841312611245
933.4666034741982,0.17201079558179352
934.4270595571528,0.177939013308121
935.7032533465409,0.17927548868844465
936.6602790240485,0.18043721998648024
937.6140125768478,0.1847120033584575
938.8929401561664,0.18615417522373448
939.8496240601515,0.18410554658567888
940.8030170333275,0.18507979295484758
942.0782999552729,0.1719755939782794
943.0378302478234,0.16876491764827056
943.9940701198689,0.13815850307097655
945.2657104500631,0.14419030136680847
946.2248981969385,0.1460058643712654
947.1776105579398,0.14689995050133697
948.4519831323446,0.13400861182365909
949.4108285169488,0.1319287605392831
950.681697337716,0.1547719931954486
951.640303177776,0.15958526275186372
952.5956218168558,0.14403140995913466
953.8692209075259,0.1477803944667227
954.8243009257394,0.14282442681680338
955.7792787052387,0.14351901324282382
957.0524234016011,0.16003534226726593
958.007162687926,0.16378582582329348
958.961799790237,0.16389206248149407
960.234490335427,0.17672055503457415
961.1888890721635,0.21825869882277663
962.1400048604942,0.22375272927660625
963.4154223165363,0.21420509222420617
964.3663006608642,0.21138394820385292
965.3202572956927,0.19617417007688406
966.5952199520278,0.19304983025454328
967.5489381359877,0.19566567179275768
968.5025542998163,0.22013830231306528
969.773883848567,0.2238783314287969
970.7304397858286,0.22399177040322799
971.9982743261273,0.2213177714851941
972.9482376474256,0.2154783194593007
974.2221097764747,0.195301006072734
975.1718360851823,0.2037377143445058
976.4453904073206,0.21058932465605731
977.3980551721446,0.20452092282816314
978.6649414988735,0.21841555633896348
979.6173689758173,0.20533163962357337
980.5728688882989,0.20252138682835838
981.8424776399771,0.19426251212398848
982.7945654641655,0.16842357069263006
984.0638576080036,0.18187389839400706
985.0157080207208,0.18652028722066422
985.9674567128503,0.1692702931045578
987.233124890457,0.16836108555525262
988.1846366368587,0.17083476082995908
989.4563319046259,0.1797021327006668
990.4044353709892,0.1938295369543333
991.3587786995357,0.18516628576643127
992.6236807955027,0.1983042621799844
993.5777862645178,0.18405627335157754
994.8455422821762,0.16662376505943835
995.7962408156559,0.1692513726495531
997.0636809182088,0.18292414084784236
998.0141425596477,0.1742044748525165
998.9645027030285,0.17373497043899594
1000.2314917030986,0.17541821124570758
1001.1816150808946,0.19486744828862998
1002.4482884525061,0.19313139146029223
1003.3981751531853,0.2056931011657974
1004.3479604478905,0.20977569629313797
1005.6141831262569,0.21877768564240563
1006.5637318701495,0.21679616971617555
1007.8296392063515,0.21229677526356752
1008.7789514877968,0.21005680489749803
1009.7281624552328,0.2059998920876232
1010.9936195069338,0.19408605131089784
1011.9394310575161,0.1880976625085852
1012.8914675092511,0.19321331775294276
1014.1533122235373,0.16152849812090053
1015.1051116776059,0.13374409462234055
1016.3698037968483,0.14499479121869327
1017.315043667016,0.156364541630731
1018.5825821843781,0.19049379179153172
1019.5275868073726,0.19424107554879053
1020.4788110639939,0.17929282177372313
1021.7427389441302,0.17899481238260062
1022.6905669106936,0.17174786465467062
1023.6351348790097,0.1760201802458972
1024.9017724520327,0.1719218258430571
1025.849263559819,0.17929329601515093
1026.796653644989,0.17580625191027693
1028.0596833068498,0.17120061497199046
1029.006837735411,0.16457618802975124
1029.9538911951893,0.15921836019743787
1031.216472106931,0.16360509297389486
1032.1632900356835,0.15559627478551508
1033.422401520962,0.149110630346351
1034.3721394501947,0.14795055095420687
1035.3186210584306,0.14494709405430226
1036.580439643645,0.15475552461433562
1037.5235319473159,0.15044804540896906
1038.788190820851,0.15651133766314712
1039.7342018813351,0.1674690656376097
1040.995393186529,0.1543029046549608
1041.9411691047148,0.15278540568033022
1042.886844274468,0.15102572891299587
1044.1475878088404,0.16571092392277123
1045.0930279615125,0.16523553658831824
1046.038367419393,0.1473285884113328
1047.298663421365,0.1568354124122804
1048.2406178059202,0.15999170468915075
1049.1856220661082,0.1433834666748483
1050.448620619856,0.1514079977678688
1051.393389777682,0.15479027471652784
1052.3380583478952,0.1415076395472257
1053.5974599996512,0.17070693063535466
1054.5418939278927,0.17546864949061694
1055.486227322054,0.177046198029772
1056.7451821556576,0.17427141938653234
1057.6892810327095,0.18499917604610633
1058.6332794291727,0.1810650854576905
1059.891787682371,0.1860242945398262
1060.83240597331,0.17354483085333475
1062.093747474779,0.16207177595336805
1063.0372771738523,0.1653416147359553
1063.9807064831907,0.15124401179680264
1065.2384560948453,0.16418525772403456
1066.1816512237515,0.17696482771924765
1067.4390886529673,0.18436018723830505
1068.3789066517957,0.17995498002669907
1069.6391750516175,0.17391231142679087
1070.5819020811768,0.1664154035862195
1071.524528849067,0.17305717163140108
1072.7812086046392,0.18634182451159054
1073.7236014908358,0.18093701663236336
1074.665894168665,0.1723977466160382
1075.9221285537092,0.16059434675984555
