Chart Recorder Data File Tue, Sep 10, 2024 10:24 AM
Time (s)	CH1 (V)  
10:16:14.892	0.001673
10:16:15.692	0.016297
10:16:15.992	0.012077
10:16:16.392	-0.005042
10:16:16.692	-0.001109
10:16:17.092	0.012560
10:16:17.392	-0.000976
10:16:17.692	0.013459
10:16:18.092	0.010782
10:16:18.392	0.015290
10:16:18.792	0.018578
10:16:19.092	0.001335
10:16:19.492	-0.000028
10:16:19.792	0.000169
10:16:20.192	0.001604
10:16:20.492	0.004777
10:16:20.892	-0.002617
10:16:21.192	-0.000374
10:16:21.592	0.000440
10:16:21.892	-0.000721
10:16:22.292	-0.001150
10:16:22.592	-0.000032
10:16:22.892	0.000422
10:16:23.292	0.000203
10:16:23.592	0.000496
10:16:23.992	0.000119
10:16:24.292	-0.000161
10:16:24.692	-0.001195
10:16:24.992	-0.001048
10:16:25.392	0.000034
10:16:25.692	0.001183
10:16:25.992	0.001296
10:16:26.392	-0.000054
10:16:26.692	-0.000260
10:16:27.092	0.001329
10:16:27.392	-0.000397
10:16:27.792	0.001071
10:16:28.092	0.000396
10:16:28.491	-0.000774
10:16:28.792	-0.000604
10:16:29.192	-0.000361
10:16:29.492	-0.000125
10:16:29.892	0.000972
10:16:30.192	0.002686
10:16:30.492	0.001187
10:16:30.892	0.000908
10:16:31.192	-0.000364
10:16:31.592	0.000394
10:16:31.892	0.007936
10:16:32.192	0.003187
10:16:32.592	-0.003594
10:16:32.892	0.000946
10:16:33.292	0.000303
10:16:33.592	-0.000131
10:16:33.992	-0.000907
10:16:34.292	-0.000194
10:16:34.692	-0.000009
10:16:34.992	-0.000375
10:16:35.392	-0.000156
10:16:35.692	-0.000165
10:16:36.092	-0.000438
10:16:36.392	0.000229
10:16:36.792	0.000510
10:16:37.092	0.000264
10:16:37.492	-0.000042
10:16:37.792	-0.000217
10:16:38.192	-0.000170
10:16:38.492	-0.000311
10:16:38.892	0.000011
10:16:39.192	0.000443
10:16:39.592	0.000138
10:16:39.892	0.000010
10:16:40.192	0.000033
10:16:40.592	0.000463
10:16:40.892	0.000663
10:16:41.292	0.001304
10:16:41.592	0.000160
10:16:41.992	0.000332
10:16:42.292	0.000899
10:16:42.692	0.000968
10:16:42.992	0.001952
10:16:43.392	0.002372
10:16:43.692	0.000971
10:16:43.992	0.000788
10:16:44.392	-0.000037
10:16:44.692	0.000140
10:16:45.092	0.000554
10:16:45.392	-0.000140
10:16:45.692	-0.000026
10:16:46.092	0.000247
10:16:46.392	0.000525
10:16:46.792	0.000441
10:16:47.093	0.000113
10:16:47.492	0.001014
10:16:47.792	0.000339
10:16:48.192	0.001711
10:16:48.492	0.000109
10:16:48.892	0.000898
10:16:49.192	0.000699
10:16:49.592	0.000440
10:16:49.892	0.000359
10:16:50.292	0.000393
10:16:50.592	0.000014
10:16:50.892	0.000171
10:16:51.292	0.000710
10:16:51.592	0.001691
10:16:51.892	0.001450
10:16:52.292	0.000328
10:16:52.592	0.000524
10:16:52.992	0.000446
10:16:53.292	0.000705
10:16:53.593	0.000157
10:16:53.992	-0.000114
10:16:54.292	0.000139
10:16:54.692	0.000431
10:16:54.992	0.000625
10:16:55.392	0.000242
10:16:55.692	-0.000098
10:16:55.993	0.000174
10:16:56.392	-0.000022
10:16:56.692	0.000195
10:16:57.093	-0.000255
10:16:57.392	0.000007
10:16:57.792	0.000317
10:16:58.092	0.000134
10:16:58.492	0.000216
10:16:58.793	0.000154
10:16:59.192	-0.000028
10:16:59.493	-0.000024
10:16:59.892	0.000146
10:17:00.192	0.000640
10:17:00.593	0.000069
10:17:00.892	0.000331
10:17:01.293	0.000146
10:17:01.592	0.000317
10:17:01.992	0.000128
10:17:02.292	0.000167
10:17:02.692	0.000017
10:17:02.992	0.000186
10:17:03.392	0.000592
10:17:03.693	0.000224
10:17:03.992	0.000215
10:17:04.393	-0.000039
10:17:04.692	-0.000033
10:17:05.093	-0.000117
10:17:05.392	0.000164
10:17:05.792	0.000052
10:17:06.092	-0.000106
10:17:06.392	-0.000017
10:17:06.793	0.000195
10:17:07.093	0.000050
10:17:07.393	0.000143
10:17:07.793	0.000325
10:17:08.092	0.000185
10:17:08.492	0.000318
10:17:08.792	0.000048
10:17:09.192	0.000040
10:17:09.492	0.000092
10:17:09.892	-0.000014
10:17:10.192	0.000081
10:17:10.592	-0.000008
10:17:10.893	0.000430
10:17:11.292	0.000630
10:17:11.592	0.000317
10:17:11.992	0.000130
10:17:12.292	0.000146
10:17:12.692	0.000078
10:17:12.992	0.000109
10:17:13.393	0.000064
10:17:13.692	0.000184
10:17:14.092	0.000037
10:17:14.392	0.000076
10:17:14.693	0.000178
10:17:15.093	-0.000057
10:17:15.392	-0.000097
10:17:15.793	0.000211
10:17:16.092	0.000121
10:17:16.492	0.000478
10:17:16.793	0.000822
10:17:17.193	0.000215
10:17:17.492	0.000221
10:17:17.892	0.000099
10:17:18.193	0.000421
10:17:18.593	0.000091
10:17:18.893	-0.000007
10:17:19.193	0.000075
10:17:19.593	0.000103
10:17:19.893	0.000085
10:17:20.292	0.000351
10:17:20.693	0.000001
10:17:20.992	-0.000133
10:17:21.392	0.000060
10:17:21.692	0.000225
10:17:22.093	-0.000309
10:17:22.392	0.000189
10:17:22.793	0.000313
10:17:23.092	0.000220
10:17:23.392	0.000181
10:17:23.793	-0.000108
10:17:24.093	0.000002
10:17:24.393	0.000138
10:17:24.793	0.000165
10:17:25.092	0.000345
10:17:25.493	0.000131
10:17:25.792	0.000084
10:17:26.193	-0.000113
10:17:26.492	-0.000005
10:17:26.893	0.000260
10:17:27.192	0.000423
10:17:27.593	-0.000046
10:17:27.893	-0.000048
10:17:28.293	0.000104
10:17:28.593	0.000057
10:17:28.993	0.000544
10:17:29.294	0.000267
10:17:29.692	0.000225
10:17:29.992	0.000566
10:17:30.292	0.001183
10:17:30.692	0.000098
10:17:30.993	0.000269
10:17:31.392	0.000406
10:17:31.693	0.000199
10:17:32.092	0.000326
10:17:32.392	0.000251
10:17:32.792	0.000128
10:17:33.093	0.000379
10:17:33.492	0.000886
10:17:33.892	0.000340
10:17:34.193	0.000203
10:17:34.492	0.000425
10:17:34.892	0.000829
10:17:35.192	0.000638
10:17:35.593	0.000884
10:17:35.892	0.000525
10:17:36.192	-0.000197
10:17:36.593	0.001029
10:17:36.892	0.001233
10:17:37.193	0.001587
10:17:37.592	0.000765
10:17:37.893	0.000810
10:17:38.293	0.001093
10:17:38.593	0.000534
10:17:38.993	0.000854
10:17:39.293	0.000746
10:17:39.693	0.000934
10:17:39.993	0.001622
10:17:40.393	0.001370
10:17:40.693	0.001373
10:17:41.093	0.003024
10:17:41.393	0.005777
10:17:41.793	0.017416
10:17:42.092	0.041457
10:17:42.392	0.052333
10:17:42.792	0.035203
10:17:43.093	0.028108
10:17:43.392	0.023072
10:17:43.792	0.018604
10:17:44.092	0.012333
10:17:44.393	0.012620
10:17:44.792	0.007562
10:17:45.092	0.004635
10:17:45.493	0.004707
10:17:45.793	0.004612
10:17:46.193	0.002344
10:17:46.493	0.001628
10:17:46.892	0.001639
10:17:47.193	0.000741
10:17:47.593	0.000627
10:17:47.892	0.002646
10:17:48.293	-0.000059
10:17:48.593	0.000098
10:17:48.993	-0.000133
10:17:49.293	0.000506
10:17:49.692	-0.000078
10:17:49.993	0.000719
10:17:50.392	0.000750
10:17:50.693	0.000734
10:17:51.093	0.001330
10:17:51.393	0.002034
10:17:51.793	0.003011
10:17:52.093	0.002405
10:17:52.493	0.001175
10:17:52.793	0.002973
10:17:53.193	0.001481
10:17:53.493	0.001514
10:17:53.893	0.000697
10:17:54.193	0.001624
10:17:54.593	0.000997
10:17:54.893	0.000616
10:17:55.292	0.001228
10:17:55.594	0.002127
10:17:55.992	0.000848
10:17:56.294	0.000684
10:17:56.692	0.001318
10:17:56.993	0.000371
10:17:57.293	0.001500
10:17:57.692	0.000569
10:17:57.992	0.000519
10:17:58.392	0.000427
10:17:58.692	0.000503
10:17:59.093	0.000334
10:17:59.393	-0.000047
10:17:59.793	0.000363
10:18:00.092	0.000456
10:18:00.493	0.000258
10:18:00.793	0.000112
10:18:01.193	0.000586
10:18:01.493	0.000190
10:18:01.893	0.000483
10:18:02.193	0.000404
10:18:02.592	0.000250
10:18:02.892	0.000268
10:18:03.292	0.000330
10:18:03.593	0.000391
10:18:03.992	0.000354
10:18:04.292	0.000197
10:18:04.593	0.000518
10:18:04.993	0.001167
10:18:05.292	0.000655
10:18:05.693	0.000300
10:18:05.993	0.000595
10:18:06.393	0.000162
10:18:06.693	0.000084
10:18:07.093	-0.000043
10:18:07.393	0.000702
10:18:07.792	0.000382
10:18:08.092	0.000231
10:18:08.493	0.000574
10:18:08.792	0.000709
10:18:09.193	0.000282
10:18:09.492	0.000156
10:18:09.893	0.000158
10:18:10.193	0.000313
10:18:10.492	0.000366
10:18:10.893	0.000369
10:18:11.193	0.000898
10:18:11.593	0.000529
10:18:11.893	0.000109
10:18:12.292	0.000270
10:18:12.593	0.000241
10:18:12.993	0.000358
10:18:13.294	0.000604
10:18:13.593	0.000453
10:18:13.993	0.000527
10:18:14.292	0.000532
10:18:14.693	0.000210
10:18:14.992	0.000653
10:18:15.392	0.000404
10:18:15.693	0.000848
10:18:16.092	0.001240
10:18:16.393	0.000621
10:18:16.692	-0.000059
10:18:17.092	0.000509
10:18:17.393	0.000868
10:18:17.792	0.001035
10:18:18.093	0.000365
10:18:18.492	0.001887
10:18:18.792	0.000821
10:18:19.092	0.000211
10:18:19.494	-0.001169
10:18:19.793	0.001477
10:18:20.193	0.000898
10:18:20.492	0.000642
10:18:20.893	0.000063
10:18:21.193	0.000464
10:18:21.492	-0.000199
10:18:21.893	0.000585
10:18:22.192	0.000669
10:18:22.593	-0.000224
10:18:22.892	-0.000404
10:18:23.292	-0.000963
10:18:23.592	-0.000280
10:18:23.993	-0.000280
10:18:24.293	-0.000607
10:18:24.592	0.007733
10:18:24.992	0.003929
10:18:25.293	0.001208
10:18:25.692	-0.000941
10:18:25.993	-0.000821
10:18:26.393	0.000003
10:18:26.693	0.000002
10:18:27.093	0.000152
10:18:27.392	0.000302
10:18:27.693	-0.000022
10:18:28.093	0.000071
10:18:28.393	0.000540
10:18:28.793	0.000212
10:18:29.093	0.000578
10:18:29.493	0.000024
10:18:29.794	-0.000775
10:18:30.193	-0.000034
10:18:30.493	0.000533
10:18:30.893	0.000544
10:18:31.193	-0.000078
10:18:31.593	-0.000200
10:18:31.893	-0.000022
10:18:32.293	-0.000012
10:18:32.593	0.000653
10:18:32.893	-0.000388
10:18:33.292	0.000068
10:18:33.592	-0.000063
10:18:33.993	-0.000137
10:18:34.293	-0.000365
10:18:34.593	-0.000542
10:18:34.993	-0.000525
10:18:35.293	0.000084
10:18:35.693	-0.000190
10:18:35.993	-0.000350
10:18:36.392	-0.000047
10:18:36.693	-0.000013
10:18:37.092	0.000774
10:18:37.393	0.000754
10:18:37.793	-0.000005
10:18:38.093	-0.000312
10:18:38.393	-0.000301
10:18:38.792	-0.000319
10:18:39.093	-0.000397
10:18:39.493	-0.000575
10:18:39.793	-0.000557
10:18:40.193	-0.000377
10:18:40.492	-0.000037
10:18:40.893	-0.000032
10:18:41.193	-0.000193
10:18:41.593	-0.000390
10:18:41.892	0.000366
10:18:42.293	0.003604
10:18:42.593	0.003839
10:18:42.993	0.000932
10:18:43.292	-0.001437
10:18:43.693	-0.000046
10:18:43.993	-0.000263
10:18:44.393	-0.000453
10:18:44.693	0.004265
10:18:45.093	-0.000898
10:18:45.392	-0.000945
10:18:45.693	-0.000408
10:18:46.093	0.000077
10:18:46.392	0.000163
10:18:46.792	-0.000333
10:18:47.093	-0.000089
10:18:47.393	-0.000169
10:18:47.793	-0.000338
10:18:48.192	0.000336
10:18:48.493	0.000504
10:18:48.892	-0.000613
10:18:49.193	-0.000460
10:18:49.593	0.000140
10:18:49.893	0.000447
10:18:50.292	-0.000533
10:18:50.593	0.000062
10:18:50.993	0.000133
10:18:51.293	0.000541
10:18:51.693	0.000009
10:18:51.992	-0.000771
10:18:52.394	-0.000680
10:18:52.693	-0.000403
10:18:53.093	0.000001
10:18:53.393	0.003105
10:18:53.692	0.002788
10:18:54.093	0.000184
10:18:54.393	0.001535
10:18:54.793	-0.000503
10:18:55.093	0.001361
10:18:55.493	-0.000349
10:18:55.793	-0.003071
10:18:56.193	-0.001230
10:18:56.493	0.002027
10:18:56.893	-0.000678
10:18:57.193	-0.002123
10:18:57.593	-0.000814
10:18:57.893	0.003638
10:18:58.293	0.003778
10:18:58.592	0.001703
10:18:58.992	0.000170
10:18:59.293	0.000371
10:18:59.693	0.005588
10:18:59.993	0.000501
10:19:00.393	0.015224
10:19:00.693	0.006534
10:19:01.093	0.027615
10:19:01.393	0.011321
10:19:01.693	0.007332
10:19:02.093	0.019058
10:19:02.392	0.006454
10:19:02.793	0.008093
10:19:03.093	0.001434
10:19:03.493	-0.004325
10:19:03.793	0.010526
10:19:04.193	0.003874
10:19:04.493	0.002667
10:19:04.793	0.003800
10:19:05.193	0.004410
10:19:05.493	0.000988
10:19:05.793	0.002377
10:19:06.192	0.001697
10:19:06.494	0.007668
10:19:06.793	0.005957
10:19:07.193	0.004619
10:19:07.493	0.003059
10:19:07.793	0.008295
10:19:08.193	-0.002030
10:19:08.493	-0.003508
10:19:08.793	0.018099
10:19:09.193	0.012283
10:19:09.493	0.017484
10:19:09.893	0.012643
10:19:10.193	0.001563
10:19:10.593	-0.002303
10:19:10.893	0.018678
10:19:11.292	0.007951
10:19:11.692	0.007836
10:19:11.993	0.008263
10:19:12.393	0.004213
10:19:12.693	0.006655
10:19:13.093	0.006301
10:19:13.393	0.011886
10:19:13.793	0.011241
10:19:14.093	0.003938
10:19:14.493	-0.000636
10:19:14.793	-0.001654
10:19:15.193	0.002715
10:19:15.493	-0.006546
10:19:15.793	-0.011933
10:19:16.193	0.001982
10:19:16.493	0.002065
10:19:16.893	0.000502
10:19:17.193	-0.001378
10:19:17.493	0.001072
10:19:17.892	-0.002163
10:19:18.193	0.002878
10:19:18.593	0.000112
10:19:18.893	-0.000589
10:19:19.293	0.001765
10:19:19.593	-0.001814
10:19:19.993	0.002682
10:19:20.293	0.002798
10:19:20.693	0.004604
10:19:20.993	0.003750
10:19:21.393	0.005468
10:19:21.694	0.005027
10:19:21.993	0.004722
10:19:22.393	0.007859
10:19:22.693	0.005466
10:19:22.993	0.001183
10:19:23.393	0.000047
10:19:23.693	0.003034
10:19:24.093	0.005094
10:19:24.393	0.001040
10:19:24.793	0.001707
10:19:25.093	0.016593
10:19:25.493	0.008090
10:19:25.793	0.003122
10:19:26.192	0.003965
10:19:26.493	-0.004138
10:19:26.892	0.003387
10:19:27.192	0.002463
10:19:27.593	0.004889
10:19:27.893	0.006539
10:19:28.193	-0.000173
10:19:28.593	0.002667
10:19:28.893	0.000095
10:19:29.193	0.000459
10:19:29.593	0.001258
10:19:29.894	-0.003472
10:19:30.193	-0.001473
10:19:30.593	0.000813
10:19:30.893	0.000627
10:19:31.293	0.000571
10:19:31.593	0.001555
10:19:31.993	0.002162
10:19:32.293	0.003372
10:19:32.693	0.002753
10:19:32.993	0.001464
10:19:33.393	0.001157
10:19:33.693	0.000890
10:19:34.093	0.002594
10:19:34.393	0.000059
10:19:34.793	0.000559
10:19:35.093	0.000736
10:19:35.493	0.005305
10:19:35.793	0.006695
10:19:36.093	0.005030
10:19:36.493	0.003025
10:19:36.793	0.006609
10:19:37.193	-0.000300
10:19:37.493	0.002367
10:19:37.893	0.004609
10:19:38.193	-0.000979
10:19:38.593	0.003196
10:19:38.893	-0.000332
10:19:39.293	-0.001856
10:19:39.593	0.002181
10:19:39.993	0.001518
10:19:40.293	0.015200
10:19:40.693	0.005734
10:19:40.993	-0.001587
10:19:41.293	-0.000257
10:19:41.693	0.000597
10:19:41.993	0.000295
10:19:42.393	0.008380
10:19:42.693	0.003300
10:19:42.993	0.005505
10:19:43.393	0.002432
10:19:43.693	0.002367
10:19:44.093	0.002747
10:19:44.393	-0.000685
10:19:44.793	0.001985
10:19:45.093	0.001082
10:19:45.493	0.001404
10:19:45.793	0.002544
10:19:46.093	0.001893
10:19:46.493	0.007869
10:19:46.793	0.000531
10:19:47.093	0.000319
10:19:47.493	-0.000391
10:19:47.793	-0.001227
10:19:48.193	-0.001476
10:19:48.493	-0.000288
10:19:48.893	0.001479
10:19:49.193	-0.003094
10:19:49.593	0.000923
10:19:49.893	0.003754
10:19:50.193	0.003164
10:19:50.593	0.018208
10:19:50.893	0.017322
10:19:51.193	0.009945
10:19:51.593	0.005633
10:19:51.893	0.019086
10:19:52.293	0.087166
10:19:52.593	0.313003
10:19:52.994	0.783591
10:19:53.293	0.834658
10:19:53.694	0.303842
10:19:53.993	0.130181
10:19:54.393	0.096374
10:19:54.693	0.054333
10:19:55.093	0.033089
10:19:55.393	0.060313
10:19:55.793	0.024657
10:19:56.093	0.007071
10:19:56.393	0.007291
10:19:56.794	0.004642
10:19:57.093	0.002190
10:19:57.394	0.003496
10:19:57.793	0.005358
10:19:58.093	0.002626
10:19:58.493	0.000677
10:19:58.793	0.001446
10:19:59.193	-0.000448
10:19:59.493	-0.001952
10:19:59.893	-0.000124
10:20:00.193	-0.001790
10:20:00.593	-0.000147
10:20:00.893	-0.000137
10:20:01.293	0.006151
10:20:01.594	0.004026
10:20:01.993	0.001318
10:20:02.293	0.001129
10:20:02.693	-0.000407
10:20:02.993	0.001561
10:20:03.393	0.002447
10:20:03.693	0.004236
10:20:04.094	0.006300
10:20:04.393	-0.000163
10:20:04.794	-0.000039
10:20:05.093	0.000312
10:20:05.493	0.001887
10:20:05.793	0.000751
10:20:06.093	0.001432
10:20:06.493	0.002063
10:20:06.793	0.002000
10:20:07.193	-0.000821
10:20:07.493	0.000385
10:20:07.893	0.001905
10:20:08.193	0.004648
10:20:08.594	0.003856
10:20:08.893	0.003572
10:20:09.293	0.002629
10:20:09.593	0.002193
10:20:09.994	-0.003377
10:20:10.293	-0.000383
10:20:10.694	0.001534
10:20:10.993	-0.000327
10:20:11.393	-0.002886
10:20:11.793	0.002277
10:20:12.093	0.002090
10:20:12.493	0.004534
10:20:12.793	0.002614
10:20:13.193	0.001545
10:20:13.493	0.005020
10:20:13.894	0.001664
10:20:14.194	0.005244
10:20:14.494	0.006450
10:20:14.893	0.002598
10:20:15.194	0.008004
10:20:15.593	0.001567
10:20:15.894	0.000569
10:20:16.193	-0.000049
10:20:16.594	0.002889
10:20:16.894	-0.000146
10:20:17.294	0.005564
10:20:17.594	0.003828
10:20:17.893	0.000929
10:20:18.294	0.006028
10:20:18.593	0.000239
10:20:18.994	0.002071
10:20:19.293	-0.002873
10:20:19.694	-0.000772
10:20:19.994	0.003354
10:20:20.293	0.001974
10:20:20.694	0.001121
10:20:20.993	0.002750
10:20:21.393	0.000759
10:20:21.694	-0.000035
10:20:22.094	-0.000642
10:20:22.394	-0.000211
10:20:22.693	0.002407
10:20:23.093	-0.004838
10:20:23.394	0.000691
10:20:23.794	0.005334
10:20:24.093	0.004546
10:20:24.494	-0.003704
10:20:24.793	-0.002034
10:20:25.193	-0.000725
10:20:25.494	-0.001462
10:20:25.894	0.001582
10:20:26.194	-0.000775
10:20:26.494	-0.001728
10:20:26.894	0.001984
10:20:27.194	0.001747
10:20:27.493	0.001704
10:20:27.894	0.000376
10:20:28.193	-0.000260
10:20:28.493	0.000241
10:20:28.894	-0.001272
10:20:29.193	0.000155
10:20:29.493	0.001342
10:20:29.893	-0.000180
10:20:30.194	-0.000768
10:20:30.494	-0.001669
10:20:30.894	-0.000129
10:20:31.193	-0.001528
10:20:31.594	-0.000878
10:20:31.894	0.000009
10:20:32.293	0.000403
10:20:32.594	-0.000356
10:20:32.894	-0.000647
10:20:33.294	-0.000040
10:20:33.594	0.001378
10:20:33.994	-0.004048
10:20:34.295	-0.000192
10:20:34.593	-0.000196
10:20:34.994	0.001703
10:20:35.293	0.000179
10:20:35.593	0.000356
10:20:35.994	-0.001426
10:20:36.293	-0.003295
10:20:36.693	-0.033519
10:20:36.993	-0.006417
10:20:37.394	-0.001729
10:20:37.693	-0.004791
10:20:38.093	-0.005722
10:20:38.393	-0.004959
10:20:38.793	-0.002943
10:20:39.094	-0.005086
10:20:39.493	-0.002013
10:20:39.794	-0.003326
10:20:40.194	-0.002225
10:20:40.494	-0.001146
10:20:40.894	-0.003233
10:20:41.194	-0.002777
10:20:41.494	-0.000849
10:20:41.893	-0.001717
10:20:42.194	-0.001938
10:20:42.594	-0.001945
10:20:42.893	-0.001137
10:20:43.294	-0.001183
10:20:43.594	-0.000574
10:20:43.994	-0.000337
10:20:44.294	-0.001022
10:20:44.694	-0.001798
10:20:44.993	-0.001614
10:20:45.294	-0.002013
10:20:45.693	-0.000644
10:20:45.994	-0.000000
10:20:46.294	-0.000725
10:20:46.693	-0.000909
10:20:46.993	-0.000907
10:20:47.294	-0.000339
10:20:47.694	0.000707
10:20:47.994	0.000048
10:20:48.294	-0.000597
10:20:48.694	-0.000287
10:20:48.994	-0.001604
10:20:49.393	-0.001189
10:20:49.694	-0.001104
10:20:50.094	-0.000922
10:20:50.394	-0.001230
10:20:50.794	-0.001380
10:20:51.094	-0.001765
10:20:51.394	-0.001594
10:20:51.794	-0.001439
10:20:52.094	-0.000535
10:20:52.394	-0.002428
10:20:52.794	0.000102
10:20:53.094	-0.000675
10:20:53.394	-0.002443
10:20:53.795	-0.003319
10:20:54.094	-0.002785
10:20:54.394	-0.000458
10:20:54.793	-0.000063
10:20:55.093	-0.000986
10:20:55.393	-0.001112
10:20:55.794	0.000886
10:20:56.094	0.001648
10:20:56.493	0.000030
10:20:56.794	-0.001032
10:20:57.194	-0.002706
10:20:57.593	-0.001990
10:20:57.894	-0.001124
10:20:58.294	-0.002330
10:20:58.593	-0.006133
10:20:58.993	-0.004534
10:20:59.293	-0.000019
10:20:59.594	-0.001313
10:20:59.994	-0.000599
10:21:00.293	-0.000705
10:21:00.594	-0.000360
10:21:00.993	-0.000810
10:21:01.293	-0.001724
10:21:01.594	-0.002730
10:21:01.994	-0.003012
10:21:02.294	0.000012
10:21:02.594	-0.001629
10:21:02.993	0.000577
10:21:03.293	0.001857
10:21:03.594	0.000320
10:21:03.993	-0.000606
10:21:04.293	-0.000314
10:21:04.694	-0.001499
10:21:04.994	-0.000618
10:21:05.393	-0.000656
10:21:05.693	0.000031
10:21:06.094	0.000394
10:21:06.394	-0.000452
10:21:06.795	0.000376
10:21:07.093	-0.000161
10:21:07.494	0.001472
10:21:07.794	0.001229
10:21:08.194	-0.001361
10:21:08.494	0.000166
10:21:08.794	0.001571
10:21:09.194	-0.000120
10:21:09.493	-0.000832
10:21:09.894	0.000238
10:21:10.194	-0.000098
10:21:10.593	-0.000290
10:21:10.894	-0.001669
10:21:11.293	-0.000886
10:21:11.594	-0.000891
10:21:11.994	-0.000517
10:21:12.293	0.000791
10:21:12.594	0.000475
10:21:12.994	-0.000923
10:21:13.294	-0.001314
10:21:13.594	-0.001075
10:21:13.994	-0.001323
10:21:14.293	-0.001500
10:21:14.593	-0.000053
10:21:14.993	0.000202
10:21:15.294	0.000249
10:21:15.594	0.001049
10:21:15.994	0.001687
10:21:16.294	-0.000749
10:21:16.594	0.000531
10:21:16.993	0.003439
10:21:17.294	0.000789
10:21:17.693	0.002110
10:21:17.995	0.001840
10:21:18.294	0.003384
10:21:18.694	0.001381
10:21:18.994	0.002837
10:21:19.394	0.003904
10:21:19.694	0.003367
10:21:20.093	0.005763
10:21:20.393	0.009060
10:21:20.694	0.011529
10:21:21.094	0.011660
10:21:21.394	0.008954
10:21:21.694	0.009843
10:21:22.094	0.014246
10:21:22.395	0.016477
10:21:22.694	0.011418
10:21:23.094	0.009644
10:21:23.394	0.011446
10:21:23.694	0.010677
10:21:24.094	0.011488
10:21:24.393	0.015681
10:21:24.694	0.009914
10:21:25.094	0.008406
10:21:25.393	0.009897
10:21:25.794	0.014213
10:21:26.094	0.014396
10:21:26.494	0.014891
10:21:26.794	0.010625
10:21:27.194	0.010687
10:21:27.494	0.012478
10:21:27.794	0.013866
10:21:28.193	0.012640
10:21:28.494	0.008518
10:21:28.794	0.008370
10:21:29.193	0.013683
10:21:29.494	0.017414
10:21:29.794	0.015013
10:21:30.194	0.007998
10:21:30.494	0.011244
10:21:30.794	0.010106
10:21:31.194	0.011104
10:21:31.494	0.009391
10:21:31.793	0.006971
10:21:32.194	0.008014
10:21:32.494	0.009745
10:21:32.793	0.011771
10:21:33.194	0.011356
10:21:33.494	0.008653
10:21:33.795	0.008633
10:21:34.194	0.008485
10:21:34.493	0.008495
10:21:34.794	0.010292
10:21:35.193	0.007764
10:21:35.493	0.009712
10:21:35.794	0.008240
10:21:36.194	0.014628
10:21:36.494	0.014929
10:21:36.793	0.016453
10:21:37.194	0.012274
10:21:37.494	0.010747
10:21:37.793	0.010331
10:21:38.194	0.015001
10:21:38.494	0.018506
10:21:38.794	0.014576
10:21:39.194	0.030187
10:21:39.494	0.022686
10:21:39.794	0.017959
10:21:40.194	0.009705
10:21:40.495	0.011110
10:21:40.794	0.014135
10:21:41.194	0.018002
10:21:41.494	0.022850
10:21:41.795	0.018705
10:21:42.194	0.019474
10:21:42.494	0.022419
10:21:42.793	0.020501
10:21:43.195	0.020808
10:21:43.494	0.018634
10:21:43.794	0.014617
10:21:44.194	0.018707
10:21:44.494	0.018307
10:21:44.894	0.024199
10:21:45.194	0.027616
10:21:45.594	0.019482
10:21:45.894	0.016524
10:21:46.293	0.019730
10:21:46.594	0.021655
10:21:46.893	0.023197
10:21:47.294	0.016188
10:21:47.594	0.013596
10:21:47.894	0.016125
10:21:48.294	0.020617
10:21:48.594	0.018333
10:21:48.894	0.016050
10:21:49.294	0.015701
10:21:49.594	0.016306
10:21:49.894	0.015270
10:21:50.293	0.016658
10:21:50.594	0.021840
10:21:50.894	0.024165
10:21:51.295	0.024446
10:21:51.594	0.018036
10:21:51.893	0.019545
10:21:52.293	0.024645
10:21:52.594	0.027742
10:21:52.894	0.025517
10:21:53.294	0.029099
10:21:53.593	0.023894
10:21:53.994	0.027908
10:21:54.294	0.028946
10:21:54.693	0.024113
10:21:54.993	0.038324
10:21:55.394	0.045450
10:21:55.694	0.045099
10:21:55.994	0.069386
10:21:56.394	0.065134
10:21:56.694	0.070412
10:21:56.994	0.071316
10:21:57.394	0.090061
10:21:57.694	0.088938
10:21:58.094	0.109868
10:21:58.394	0.124456
10:21:58.793	0.133146
10:21:59.094	0.133660
10:21:59.493	0.109415
10:21:59.794	0.121723
10:22:00.094	0.145802
10:22:00.494	0.143154
10:22:00.794	0.132012
10:22:01.094	0.089384
10:22:01.494	0.070320
10:22:01.794	0.067945
10:22:02.094	0.057884
10:22:02.494	0.054404
10:22:02.794	0.030317
10:22:03.094	0.033440
10:22:03.493	0.033654
10:22:03.794	0.024477
10:22:04.093	0.025266
10:22:04.494	0.031557
10:22:04.794	0.020145
10:22:05.094	0.024434
10:22:05.495	0.041127
10:22:05.793	0.046683
10:22:06.194	0.052458
10:22:06.494	0.055534
10:22:06.793	0.069102
10:22:07.194	0.078587
10:22:07.494	0.103457
10:22:07.794	0.142148
10:22:08.194	0.279564
10:22:08.494	0.341605
10:22:08.793	0.437432
10:22:09.194	0.583307
10:22:09.494	0.835535
10:22:09.894	0.971637
10:22:10.194	1.195791
10:22:10.494	1.185061
10:22:10.894	0.955654
10:22:11.194	0.804334
10:22:11.594	0.526106
10:22:11.893	0.382188
10:22:12.294	0.268981
10:22:12.594	0.230205
10:22:12.994	0.208137
10:22:13.294	0.139902
10:22:13.594	0.109294
10:22:13.994	0.099693
10:22:14.294	0.077498
10:22:14.695	0.063046
10:22:14.994	0.064149
10:22:15.394	0.053001
10:22:15.693	0.058954
10:22:15.994	0.058893
10:22:16.394	0.072749
10:22:16.694	0.066433
10:22:16.994	0.062272
10:22:17.394	0.058162
10:22:17.694	0.045349
10:22:17.993	0.054952
10:22:18.394	0.041510
10:22:18.694	0.035129
10:22:19.094	0.042253
10:22:19.394	0.036975
10:22:19.794	0.030851
10:22:20.094	0.029170
10:22:20.395	0.031653
10:22:20.794	0.063467
10:22:21.094	0.047963
10:22:21.494	0.038559
10:22:21.794	0.041928
10:22:22.094	0.046605
10:22:22.494	0.038875
10:22:22.794	0.027888
10:22:23.094	0.026523
10:22:23.494	0.025174
10:22:23.794	0.022348
10:22:24.094	0.015375
10:22:24.494	0.021232
10:22:24.793	0.028931
10:22:25.094	0.039982
10:22:25.494	0.031284
10:22:25.794	0.033064
10:22:26.094	0.029029
10:22:26.494	0.031775
10:22:26.794	0.026030
10:22:27.094	0.034876
10:22:27.494	0.034843
10:22:27.794	0.037776
10:22:28.195	0.028539
10:22:28.494	0.031222
10:22:28.894	0.018904
10:22:29.194	0.020173
10:22:29.594	0.035944
10:22:29.894	0.018104
10:22:30.194	0.020168
10:22:30.594	0.023734
10:22:30.894	0.023711
10:22:31.193	0.020542
10:22:31.594	0.026011
10:22:31.894	0.015674
10:22:32.194	0.022474
10:22:32.594	0.018460
10:22:32.894	0.022891
10:22:33.194	0.019188
10:22:33.594	0.023983
10:22:33.894	0.021362
10:22:34.294	0.029432
10:22:34.594	0.022828
10:22:34.994	0.020549
10:22:35.294	0.023348
10:22:35.694	0.018230
10:22:35.994	0.014239
10:22:36.294	0.016321
10:22:36.693	0.022779
10:22:36.994	0.023218
10:22:37.294	0.029482
10:22:37.694	0.030364
10:22:37.994	0.025450
10:22:38.294	0.023680
10:22:38.694	0.024402
10:22:38.994	0.022551
10:22:39.294	0.024827
10:22:39.694	0.018086
10:22:39.994	0.011286
10:22:40.294	0.015915
10:22:40.694	0.010449
10:22:40.994	0.018894
10:22:41.294	0.017417
10:22:41.694	0.018463
10:22:41.994	0.020763
10:22:42.394	0.021215
10:22:42.694	0.013301
10:22:43.094	0.021679
10:22:43.394	0.015953
10:22:43.794	0.011972
10:22:44.095	0.014717
10:22:44.394	0.014037
10:22:44.794	0.020890
10:22:45.094	0.021838
10:22:45.394	0.022309
10:22:45.794	0.015676
10:22:46.094	0.017438
10:22:46.394	0.014012
10:22:46.794	0.016883
10:22:47.094	0.017434
10:22:47.394	0.012166
10:22:47.794	0.014719
10:22:48.094	0.024504
10:22:48.494	0.025146
10:22:48.794	0.028064
10:22:49.194	0.031730
10:22:49.494	0.021213
10:22:49.894	0.014884
10:22:50.194	0.024697
10:22:50.594	0.022814
10:22:50.895	0.021110
10:22:51.194	0.026974
10:22:51.594	0.022670
10:22:51.894	0.025884
10:22:52.194	0.029284
10:22:52.594	0.033783
10:22:52.894	0.031948
10:22:53.194	0.028474
10:22:53.594	0.026548
10:22:53.894	0.027347
10:22:54.194	0.031220
10:22:54.594	0.023494
10:22:54.894	0.029854
10:22:55.294	0.029297
10:22:55.594	0.030371
10:22:55.994	0.031360
10:22:56.294	0.028838
10:22:56.694	0.023071
10:22:56.994	0.030535
10:22:57.294	0.034496
10:22:57.694	0.034914
10:22:57.994	0.028208
10:22:58.295	0.030463
10:22:58.694	0.032561
10:22:58.994	0.032340
10:22:59.295	0.016681
10:22:59.694	0.029911
10:22:59.994	0.036837
10:23:00.294	0.019283
10:23:00.694	0.027242
10:23:00.994	0.029972
10:23:01.294	0.036661
10:23:01.694	0.028137
10:23:01.994	0.016662
10:23:02.294	0.016305
10:23:02.694	0.021935
10:23:02.994	0.014512
10:23:03.394	0.016609
10:23:03.694	0.027902
10:23:04.094	0.027896
10:23:04.394	0.032613
10:23:04.694	0.032841
10:23:05.094	0.030373
10:23:05.394	0.024672
10:23:05.794	0.017002
10:23:06.094	0.020647
10:23:06.394	0.029297
10:23:06.794	0.016816
10:23:07.094	0.018655
10:23:07.395	0.024131
10:23:07.794	0.015528
10:23:08.094	0.017666
10:23:08.394	0.020117
10:23:08.794	0.023279
10:23:09.095	0.027151
10:23:09.394	0.031124
10:23:09.795	0.021691
10:23:10.094	0.018957
10:23:10.494	0.013585
10:23:10.794	0.016998
10:23:11.194	0.023611
10:23:11.494	0.026523
10:23:11.894	0.023451
10:23:12.195	0.022839
10:23:12.594	0.032207
10:23:12.895	0.031847
10:23:13.295	0.031444
10:23:13.594	0.039424
10:23:13.994	0.044952
10:23:14.294	0.023774
10:23:14.594	0.017659
10:23:14.994	0.024041
10:23:15.294	0.025902
10:23:15.594	0.034144
10:23:15.994	0.034239
10:23:16.294	0.048613
10:23:16.595	0.038541
10:23:16.994	0.033788
10:23:17.294	0.023749
10:23:17.695	0.028815
10:23:17.994	0.027222
10:23:18.394	0.024650
10:23:18.694	0.015821