Chart Recorder Data File Tue, Sep 10, 2024 9:50 AM
Time (s)	CH1 (V)  
09:32:26.077	0.024367
09:32:26.977	0.006108
09:32:27.277	0.020548
09:32:27.678	0.014053
09:32:27.978	0.010247
09:32:28.378	0.017113
09:32:28.677	0.009699
09:32:29.078	0.003702
09:32:29.378	0.008291
09:32:29.778	0.006754
09:32:30.078	0.005649
09:32:30.478	0.004127
09:32:30.777	-0.000018
09:32:31.178	0.019582
09:32:31.477	0.003950
09:32:31.877	0.015611
09:32:32.178	0.014243
09:32:32.577	0.006209
09:32:32.878	0.023870
09:32:33.278	0.007944
09:32:33.578	0.046280
09:32:33.978	0.024042
09:32:34.278	0.018316
09:32:34.677	0.022631
09:32:34.978	0.014669
09:32:35.378	0.022523
09:32:35.678	0.008894
09:32:36.078	0.014858
09:32:36.378	0.030220
09:32:36.778	0.018564
09:32:37.078	0.027290
09:32:37.478	0.022967
09:32:37.778	0.022626
09:32:38.178	0.029533
09:32:38.477	0.028507
09:32:38.877	0.025333
09:32:39.178	-0.005770
09:32:39.477	0.006114
09:32:39.877	-0.001841
09:32:40.177	0.029594
09:32:40.578	0.024018
09:32:40.878	0.016805
09:32:41.278	0.022522
09:32:41.578	0.026626
09:32:41.978	0.023407
09:32:42.278	0.027412
09:32:42.678	0.027942
09:32:43.078	0.026060
09:32:43.377	0.007330
09:32:43.778	0.011687
09:32:44.078	0.020624
09:32:44.478	0.016933
09:32:44.778	0.019336
09:32:45.178	0.030525
09:32:45.478	0.025682
09:32:45.878	0.023376
09:32:46.178	0.014297
09:32:46.578	0.030167
09:32:46.878	0.005525
09:32:47.278	-0.015706
09:32:47.577	0.002685
09:32:47.977	0.014861
09:32:48.278	0.003976
09:32:48.678	0.005585
09:32:48.977	0.007222
09:32:49.378	0.022491
09:32:49.678	0.016345
09:32:50.078	0.014522
09:32:50.378	0.006043
09:32:50.778	0.030902
09:32:51.077	0.024865
09:32:51.478	0.013881
09:32:51.777	0.009108
09:32:52.178	0.022715
09:32:52.478	0.017743
09:32:52.778	0.012339
09:32:53.178	0.011069
09:32:53.478	0.010385
09:32:53.877	0.047126
09:32:54.178	0.008041
09:32:54.478	-0.015128
09:32:54.878	-0.002066
09:32:55.178	0.007915
09:32:55.578	0.007217
09:32:55.877	0.010111
09:32:56.278	0.020639
09:32:56.577	0.019366
09:32:56.878	0.009628
09:32:57.278	-0.002243
09:32:57.578	0.012393
09:32:57.977	-0.000667
09:32:58.278	0.002506
09:32:58.678	0.015529
09:32:58.977	0.029719
09:32:59.378	0.020029
09:32:59.677	0.006455
09:33:00.078	0.011421
09:33:00.378	0.010153
09:33:00.777	-0.001470
09:33:01.078	0.020958
09:33:01.478	0.014245
09:33:01.778	0.005874
09:33:02.177	0.014229
09:33:02.478	0.015605
09:33:02.878	0.017089
09:33:03.178	0.003514
09:33:03.578	0.011347
09:33:03.878	0.019226
09:33:04.277	0.009315
09:33:04.578	0.008008
09:33:04.978	0.009652
09:33:05.277	0.006480
09:33:05.577	0.016444
09:33:05.978	0.026675
09:33:06.278	0.043408
09:33:06.678	0.010911
09:33:06.978	0.016927
09:33:07.377	0.003537
09:33:07.678	0.019125
09:33:07.978	0.008618
09:33:08.378	0.020927
09:33:08.678	0.020785
09:33:09.078	0.002727
09:33:09.378	0.006620
09:33:09.678	0.012734
09:33:10.078	0.015330
09:33:10.378	0.029684
09:33:10.678	-0.003008
09:33:11.078	-0.001501
09:33:11.378	0.021478
09:33:11.778	0.004907
09:33:12.078	0.012579
09:33:12.478	0.000725
09:33:12.777	0.008653
09:33:13.177	0.019631
09:33:13.478	0.001853
09:33:13.778	0.004055
09:33:14.178	0.008956
09:33:14.477	0.019205
09:33:14.878	0.011225
09:33:15.178	0.003072
09:33:15.577	0.030080
09:33:15.878	0.020764
09:33:16.178	0.023471
09:33:16.578	0.032171
09:33:16.877	0.058215
09:33:17.178	0.038112
09:33:17.578	-0.017729
09:33:17.878	-0.010658
09:33:18.278	0.015889
09:33:18.577	0.015637
09:33:18.978	0.004970
09:33:19.278	0.017525
09:33:19.678	0.020925
09:33:19.978	0.000245
09:33:20.378	0.005262
09:33:20.678	0.003589
09:33:20.978	0.016406
09:33:21.378	0.020597
09:33:21.678	0.022840
09:33:22.077	0.010349
09:33:22.378	0.023851
09:33:22.678	0.013634
09:33:23.078	0.024706
09:33:23.377	0.027797
09:33:23.678	0.024025
09:33:24.078	0.009947
09:33:24.378	-0.005517
09:33:24.678	-0.002927
09:33:25.078	0.000458
09:33:25.378	0.021095
09:33:25.778	0.023212
09:33:26.078	-0.003472
09:33:26.478	0.038638
09:33:26.778	0.032105
09:33:27.178	0.016153
09:33:27.478	0.017677
09:33:27.878	0.012287
09:33:28.179	0.031730
09:33:28.577	0.015546
09:33:28.878	-0.009288
09:33:29.277	0.007269
09:33:29.578	0.022131
09:33:29.878	0.023381
09:33:30.278	0.005837
09:33:30.578	0.001205
09:33:30.978	0.006864
09:33:31.278	0.015104
09:33:31.678	0.000689
09:33:31.978	-0.001589
09:33:32.377	0.023270
09:33:32.677	0.027647
09:33:33.078	0.021525
09:33:33.378	0.062949
09:33:33.777	0.036006
09:33:34.078	0.038528
09:33:34.478	0.022632
09:33:34.778	0.031196
09:33:35.078	0.026593
09:33:35.478	0.023542
09:33:35.778	0.021273
09:33:36.178	0.029033
09:33:36.478	0.020931
09:33:36.878	0.011733
09:33:37.178	0.044454
09:33:37.578	0.021963
09:33:37.878	0.017958
09:33:38.278	0.019360
09:33:38.578	0.013235
09:33:38.878	0.026770
09:33:39.278	0.026297
09:33:39.578	0.018364
09:33:39.978	0.037919
09:33:40.278	0.024346
09:33:40.678	-0.002201
09:33:40.978	0.008803
09:33:41.378	0.019560
09:33:41.678	0.045824
09:33:42.078	0.025918
09:33:42.378	0.014298
09:33:42.778	0.021878
09:33:43.078	0.020923
09:33:43.478	0.028388
09:33:43.778	0.015883
09:33:44.078	0.018661
09:33:44.478	0.031631
09:33:44.778	0.030704
09:33:45.178	0.017886
09:33:45.478	0.023548
09:33:45.778	0.018986
09:33:46.178	0.013827
09:33:46.478	0.019109
09:33:46.778	0.020909
09:33:47.178	0.017450
09:33:47.478	0.014406
09:33:47.878	0.017890
09:33:48.178	0.023887
09:33:48.578	0.029386
09:33:48.878	0.026733
09:33:49.278	0.014890
09:33:49.578	0.018606
09:33:49.978	0.014516
09:33:50.278	0.016130
09:33:50.678	0.013317
09:33:50.978	0.022283
09:33:51.378	0.008705
09:33:51.678	0.009579
09:33:52.077	0.027570
09:33:52.378	0.024446
09:33:52.778	0.035268
09:33:53.078	0.044225
09:33:53.379	0.027300
09:33:53.778	0.011302
09:33:54.078	0.017802
09:33:54.478	0.014711
09:33:54.778	0.028366
09:33:55.178	0.036871
09:33:55.478	0.031318
09:33:55.878	0.014660
09:33:56.178	0.014084
09:33:56.578	0.017625
09:33:56.877	0.021656
09:33:57.278	0.025970
09:33:57.578	0.032276
09:33:57.978	0.025344
09:33:58.278	0.008755
09:33:58.678	0.024997
09:33:58.978	0.019677
09:33:59.378	0.031140
09:33:59.678	0.028165
09:33:59.978	0.026109
09:34:00.378	0.019772
09:34:00.678	0.022658
09:34:01.078	0.017471
09:34:01.478	0.030087
09:34:01.779	0.034514
09:34:02.178	0.028604
09:34:02.478	0.023573
09:34:02.878	0.046798
09:34:03.178	0.041371
09:34:03.579	0.033597
09:34:03.878	0.023250
09:34:04.278	0.025450
09:34:04.578	0.011471
09:34:04.978	0.019874
09:34:05.278	0.019739
09:34:05.678	0.019925
09:34:05.978	0.022112
09:34:06.278	0.013286
09:34:06.678	0.031652
09:34:06.979	0.024373
09:34:07.378	0.013461
09:34:07.678	0.014241
09:34:07.978	0.025179
09:34:08.378	0.018017
09:34:08.678	0.019700
09:34:09.078	0.025636
09:34:09.377	0.019030
09:34:09.778	0.020598
09:34:10.078	0.013886
09:34:10.478	0.024903
09:34:10.778	0.021492
09:34:11.178	0.018279
09:34:11.479	0.017491
09:34:11.878	0.003971
09:34:12.178	0.008278
09:34:12.578	0.016430
09:34:12.878	0.017287
09:34:13.278	0.023930
09:34:13.578	0.028296
09:34:13.978	0.023104
09:34:14.278	0.019600
09:34:14.678	0.026118
09:34:14.978	0.017517
09:34:15.278	0.020849
09:34:15.678	0.015846
09:34:15.978	0.024215
09:34:16.378	0.028800
09:34:16.679	0.029187
09:34:17.078	0.026382
09:34:17.378	0.014824
09:34:17.778	0.023388
09:34:18.078	0.031769
09:34:18.478	0.027186
09:34:18.778	0.032211
09:34:19.178	0.034136
09:34:19.478	0.033559
09:34:19.878	0.043123
09:34:20.178	0.029819
09:34:20.578	0.022368
09:34:20.878	0.023620
09:34:21.278	0.020388
09:34:21.578	0.022342
09:34:21.978	0.024552
09:34:22.278	0.016533
09:34:22.679	0.015124
09:34:22.978	0.034540
09:34:23.378	0.018162
09:34:23.678	0.033019
09:34:24.078	0.018920
09:34:24.378	0.016999
09:34:24.778	0.004483
09:34:25.078	0.019765
09:34:25.378	0.019836
09:34:25.779	0.019268
09:34:26.078	0.013430
09:34:26.478	0.016364
09:34:26.778	0.014477
09:34:27.178	0.025897
09:34:27.478	0.029301
09:34:27.879	0.027332
09:34:28.178	0.033952
09:34:28.578	0.036190
09:34:28.878	0.027141
09:34:29.279	0.031212
09:34:29.578	0.032727
09:34:29.979	0.022577
09:34:30.278	0.040850
09:34:30.678	0.049472
09:34:30.979	0.042594
09:34:31.278	0.025534
09:34:31.678	0.029185
09:34:31.978	0.008651
09:34:32.378	0.024492
09:34:32.678	0.033934
09:34:33.078	0.028270
09:34:33.378	0.016364
09:34:33.778	0.014847
09:34:34.078	0.014351
09:34:34.378	0.021462
09:34:34.778	0.029730
09:34:35.078	0.031148
09:34:35.478	0.025401
09:34:35.778	0.018238
09:34:36.179	0.023967
09:34:36.478	0.032927
09:34:36.878	0.035508
09:34:37.178	0.028972
09:34:37.578	0.024412
09:34:37.878	0.030886
09:34:38.278	0.031108
09:34:38.578	0.032557
09:34:38.978	0.033453
09:34:39.278	0.014798
09:34:39.578	0.026048
09:34:39.978	0.039432
09:34:40.279	0.028170
09:34:40.678	0.040829
09:34:40.978	0.021380
09:34:41.378	0.006322
09:34:41.678	0.003433
09:34:42.078	0.040657
09:34:42.378	0.055161
09:34:42.778	0.027867
09:34:43.078	0.011999
09:34:43.378	0.032711
09:34:43.778	0.044372
09:34:44.079	0.043557
09:34:44.478	-0.001296
09:34:44.778	0.021350
09:34:45.178	0.019819
09:34:45.478	0.014973
09:34:45.879	0.014304
09:34:46.179	-0.001434
09:34:46.578	0.025939
09:34:46.878	0.044162
09:34:47.278	0.037241
09:34:47.578	0.049869
09:34:47.979	0.029776
09:34:48.279	0.033220
09:34:48.679	0.030360
09:34:48.978	0.023118
09:34:49.378	0.014914
09:34:49.678	-0.015101
09:34:50.078	0.008036
09:34:50.378	0.051317
09:34:50.779	0.036486
09:34:51.078	0.034907
09:34:51.478	0.011304
09:34:51.779	-0.000557
09:34:52.178	0.026822
09:34:52.478	0.008423
09:34:52.779	0.027299
09:34:53.179	0.003857
09:34:53.478	-0.003054
09:34:53.879	0.010303
09:34:54.179	0.005824
09:34:54.578	0.009203
09:34:54.878	0.042532
09:34:55.278	0.030644
09:34:55.579	0.029349
09:34:55.979	0.023937
09:34:56.279	0.018186
09:34:56.578	0.019102
09:34:56.978	0.011719
09:34:57.279	0.007827
09:34:57.678	0.016815
09:34:57.978	0.030209
09:34:58.278	0.032509
09:34:58.678	0.022081
09:34:58.978	0.018189
09:34:59.279	0.014479
09:34:59.679	0.018200
09:34:59.978	0.030905
09:35:00.379	0.014761
09:35:00.679	0.015965
09:35:01.079	0.016249
09:35:01.378	0.023660
09:35:01.778	0.024981
09:35:02.078	0.021790
09:35:02.379	0.024266
09:35:02.779	0.043048
09:35:03.078	0.040319
09:35:03.379	-0.014300
09:35:03.778	0.024540
09:35:04.080	0.017730
09:35:04.478	0.033537
09:35:04.778	0.027110
09:35:05.179	0.011830
09:35:05.480	0.002458
09:35:05.779	0.031356
09:35:06.178	0.012359
09:35:06.478	0.036172
09:35:06.879	0.029958
09:35:07.179	0.031717
09:35:07.578	0.024488
09:35:07.879	0.024260
09:35:08.279	0.017392
09:35:08.578	0.023474
09:35:08.978	0.015898
09:35:09.278	0.027315
09:35:09.678	0.035324
09:35:09.978	0.042279
09:35:10.378	0.003788
09:35:10.679	0.018605
09:35:11.079	0.052589
09:35:11.378	0.067504
09:35:11.678	0.036242
09:35:12.079	0.012807
09:35:12.378	0.029020
09:35:12.679	0.022622
09:35:13.079	0.037083
09:35:13.378	0.029795
09:35:13.779	0.033523
09:35:14.079	0.033447
09:35:14.478	0.029044
09:35:14.779	0.032262
09:35:15.179	0.027984
09:35:15.479	0.034855
09:35:15.879	0.050004
09:35:16.178	0.059177
09:35:16.478	0.048831
09:35:16.879	0.011343
09:35:17.179	0.018100
09:35:17.479	0.013974
09:35:17.879	0.035466
09:35:18.179	0.039294
09:35:18.479	0.046210
09:35:18.879	0.028811
09:35:19.179	0.027050
09:35:19.479	0.030164
09:35:19.879	0.041915
09:35:20.178	0.038657
09:35:20.479	0.027681
09:35:20.878	0.071175
09:35:21.178	0.060373
09:35:21.578	0.044937
09:35:21.878	0.043002
09:35:22.279	0.037731
09:35:22.579	0.041112
09:35:22.979	0.070766
09:35:23.279	0.110677
09:35:23.679	0.084484
09:35:23.979	0.086685
09:35:24.279	0.087178
09:35:24.679	0.088457
09:35:24.979	0.117649
09:35:25.379	0.172128
09:35:25.679	0.176816
09:35:25.980	0.231255
09:35:26.378	0.249328
09:35:26.679	0.319228
09:35:27.079	0.357092
09:35:27.379	0.409439
09:35:27.779	0.430596
09:35:28.078	0.416351
09:35:28.478	0.368195
09:35:28.779	0.353310
09:35:29.179	0.303523
09:35:29.479	0.281887
09:35:29.779	0.254883
09:35:30.178	0.224922
09:35:30.478	0.235356
09:35:30.778	0.193503
09:35:31.179	0.190272
09:35:31.480	0.183454
09:35:31.779	0.172857
09:35:32.178	0.161792
09:35:32.479	0.159524
09:35:32.778	0.135520
09:35:33.179	0.120340
09:35:33.479	0.124086
09:35:33.779	0.088634
09:35:34.178	0.101857
09:35:34.479	0.092950
09:35:34.779	0.089365
09:35:35.179	0.069784
09:35:35.478	0.059098
09:35:35.878	0.066459
09:35:36.180	0.052648
09:35:36.478	0.044486
09:35:36.878	0.026294
09:35:37.179	0.040748
09:35:37.579	0.046517
09:35:37.878	0.022725
09:35:38.179	0.033803
09:35:38.578	0.031839
09:35:38.879	0.045408
09:35:39.279	0.038176
09:35:39.578	0.034598
09:35:39.879	0.029896
09:35:40.280	0.041527
09:35:40.578	0.040311
09:35:40.979	0.042955
09:35:41.278	0.046959
09:35:41.579	0.039411
09:35:41.978	0.051398
09:35:42.279	0.058743
09:35:42.679	0.053333
09:35:42.978	0.053807
09:35:43.379	0.060608
09:35:43.679	0.062745
09:35:44.079	0.056623
09:35:44.379	0.061128
09:35:44.779	0.067221
09:35:45.078	0.075881
09:35:45.379	0.084556
09:35:45.779	0.108774
09:35:46.078	0.101350
09:35:46.479	0.081344
09:35:46.780	0.069142
09:35:47.179	0.075161
09:35:47.479	0.080357
09:35:47.779	0.078392
09:35:48.178	0.076569
09:35:48.478	0.095874
09:35:48.779	0.087433
09:35:49.179	0.091725
09:35:49.479	0.075541
09:35:49.879	0.074053
09:35:50.179	0.082741
09:35:50.579	0.081055
09:35:50.879	0.083661
09:35:51.279	0.068635
09:35:51.578	0.067368
09:35:51.979	0.072939
09:35:52.278	0.053882
09:35:52.579	0.057446
09:35:52.979	0.062265
09:35:53.279	0.060178
09:35:53.679	0.066516
09:35:53.978	0.045121
09:35:54.379	0.042468
09:35:54.679	0.044903
09:35:55.078	0.062459
09:35:55.379	0.042041
09:35:55.679	0.048441
09:35:56.079	0.053746
09:35:56.379	0.034188
09:35:56.779	0.028458
09:35:57.079	0.032510
09:35:57.478	0.044106
09:35:57.778	0.042161
09:35:58.179	0.043321
09:35:58.479	0.041978
09:35:58.879	0.042487
09:35:59.179	0.043855
09:35:59.579	0.075352
09:35:59.879	0.068308
09:36:00.279	0.033922
09:36:00.579	0.059074
09:36:00.879	0.074684
09:36:01.279	0.062034
09:36:01.579	0.004562
09:36:01.878	0.048307
09:36:02.279	0.041336
09:36:02.579	0.048072
09:36:02.979	0.046962
09:36:03.279	0.035587
09:36:03.679	0.030431
09:36:04.079	0.044540
09:36:04.380	0.031670
09:36:04.679	0.024361
09:36:05.079	0.029133
09:36:05.379	0.037285
09:36:05.779	0.025700
09:36:06.079	0.004592
09:36:06.479	0.010364
09:36:06.779	0.008438
09:36:07.179	0.040416
09:36:07.479	0.045609
09:36:07.878	0.025388
09:36:08.179	0.027222
09:36:08.579	0.021478
09:36:08.878	0.017321
09:36:09.279	0.026064
09:36:09.579	0.020705
09:36:09.979	0.010812
09:36:10.279	0.012993
09:36:10.678	0.011658
09:36:10.979	0.035625
09:36:11.379	0.017725
09:36:11.679	0.014786
09:36:11.978	0.038122
09:36:12.379	0.033724
09:36:12.679	0.030365
09:36:13.078	0.028459
09:36:13.379	0.039889
09:36:13.779	0.026458
09:36:14.079	0.021822
09:36:14.479	0.022178
09:36:14.779	0.026410
09:36:15.178	0.022246
09:36:15.478	0.024815
09:36:15.879	0.021981
09:36:16.179	0.030082
09:36:16.579	0.025304
09:36:16.880	0.025257
09:36:17.279	0.035087
09:36:17.579	0.037397
09:36:17.979	0.035711
09:36:18.279	0.046193
09:36:18.679	0.027640
09:36:18.979	0.016887
09:36:19.379	0.017421
09:36:19.679	0.041743
09:36:20.078	0.031689
09:36:20.379	0.028334
09:36:20.779	0.026467
09:36:21.078	0.049746
09:36:21.479	0.028997
09:36:21.779	0.037328
09:36:22.179	0.047328
09:36:22.478	0.054607
09:36:22.878	0.023344
09:36:23.179	0.024695
09:36:23.579	0.044654
09:36:23.878	0.035756
09:36:24.280	0.031700
09:36:24.579	0.036952
09:36:24.979	0.006499
09:36:25.279	0.025471
09:36:25.679	0.028636
09:36:25.979	0.021073
09:36:26.379	0.038867
09:36:26.680	0.038478
09:36:27.078	0.037669
09:36:27.379	0.040764
09:36:27.779	0.030499
09:36:28.079	0.022649
09:36:28.479	0.016470
09:36:28.778	0.019366
09:36:29.179	0.036107
09:36:29.479	0.039055
09:36:29.879	0.042573
09:36:30.179	0.025181
09:36:30.579	0.035225
09:36:30.878	0.029895
09:36:31.278	0.032060
09:36:31.579	0.028653
09:36:31.879	0.031512
09:36:32.279	0.027910
09:36:32.578	0.028640
09:36:32.979	0.024863
09:36:33.279	0.031281
09:36:33.679	0.046953
09:36:33.980	0.045900
09:36:34.379	0.026420
09:36:34.679	0.028673
09:36:35.079	0.036012
09:36:35.379	0.037670
09:36:35.779	0.025544
09:36:36.079	0.034324
09:36:36.479	0.033298
09:36:36.779	0.038171
09:36:37.179	0.022534
09:36:37.478	0.028962
09:36:37.879	0.045010
09:36:38.179	0.036024
09:36:38.579	0.008486
09:36:38.879	0.020473
09:36:39.279	0.021263
09:36:39.579	0.016190
09:36:39.979	0.027392
09:36:40.279	0.029335
09:36:40.679	0.023787
09:36:40.979	0.028492
09:36:41.379	0.014591
09:36:41.679	0.016158
09:36:42.080	0.011231
09:36:42.379	0.003007
09:36:42.779	0.024564
09:36:43.078	0.012913
09:36:43.479	0.007785
09:36:43.779	0.009830
09:36:44.179	-0.000765
09:36:44.479	0.000471
09:36:44.879	0.012321
09:36:45.178	0.002309
09:36:45.578	0.007293
09:36:45.879	0.005866
09:36:46.179	-0.002541
09:36:46.579	0.001383
09:36:46.879	0.010345
09:36:47.279	0.018624
09:36:47.579	0.018729
09:36:47.979	0.011665
09:36:48.279	0.007974
09:36:48.679	0.010225
09:36:48.979	0.010895
09:36:49.379	-0.002321
09:36:49.679	0.011717
09:36:50.080	0.020777
09:36:50.379	0.027929
09:36:50.780	0.006087
09:36:51.080	0.012716
09:36:51.478	-0.011567
09:36:51.779	-0.024847
09:36:52.179	0.002754
09:36:52.479	-0.017762
09:36:52.879	0.018460
09:36:53.179	-0.023919
09:36:53.579	0.014218
09:36:53.879	0.022126
09:36:54.279	0.014672
09:36:54.579	0.003022
09:36:54.979	0.017631
09:36:55.279	0.015132
09:36:55.679	0.005834
09:36:55.979	0.006395
09:36:56.379	0.010859
09:36:56.679	0.003513
09:36:57.079	0.014791
09:36:57.379	0.005422
09:36:57.779	0.003308
09:36:58.079	-0.001652
09:36:58.479	0.007935
09:36:58.779	-0.007496
09:36:59.179	0.003404
09:36:59.479	0.006130
09:36:59.879	0.011399
09:37:00.179	0.001646
09:37:00.580	0.009171
09:37:00.879	0.016867
09:37:01.279	0.008717
09:37:01.579	0.010800
09:37:01.979	0.003504
09:37:02.279	0.002306
09:37:02.679	0.006205
09:37:02.979	0.008980
09:37:03.379	0.007775
09:37:03.678	0.005275
09:37:04.079	0.007834
09:37:04.479	0.003113
09:37:04.779	0.004150
09:37:05.179	0.015200
09:37:05.479	0.005695
09:37:05.879	-0.007741
09:37:06.179	-0.003031
09:37:06.579	0.009177
09:37:06.879	0.022095
09:37:07.279	0.007542
09:37:07.578	0.005824
09:37:07.979	0.007023
09:37:08.279	0.002782
09:37:08.678	-0.009506
09:37:08.979	-0.000313
09:37:09.379	0.006238
09:37:09.679	0.008591
09:37:10.079	0.001076
09:37:10.379	0.000692
09:37:10.779	0.016442
09:37:11.079	0.006110
09:37:11.379	-0.000554
09:37:11.779	-0.001876
09:37:12.079	-0.000512
09:37:12.479	0.004280
09:37:12.779	0.011423
09:37:13.179	0.010078
09:37:13.479	0.011338
09:37:13.879	0.000692
09:37:14.179	0.009863
09:37:14.579	0.011149
09:37:14.879	0.001656
09:37:15.179	0.002402
09:37:15.579	0.002998
09:37:15.879	0.015891
09:37:16.279	0.000627
09:37:16.579	-0.007475
09:37:16.879	-0.012717
09:37:17.279	-0.006035
09:37:17.579	-0.000471
09:37:17.979	-0.021699
09:37:18.279	0.008959
09:37:18.679	0.007748
09:37:18.979	0.011959
09:37:19.279	0.006032
09:37:19.679	-0.000856
09:37:19.979	0.004459
09:37:20.279	0.005940
09:37:20.679	-0.001944
09:37:20.979	0.014637
09:37:21.379	0.015629
09:37:21.679	0.002528
09:37:22.079	0.006540
09:37:22.379	0.008053
09:37:22.779	0.004349
09:37:23.079	-0.012580
09:37:23.480	-0.014822
09:37:23.779	0.006447
09:37:24.179	-0.002641
09:37:24.479	0.008288
09:37:24.879	0.003202
09:37:25.179	0.006226
09:37:25.579	0.012839
09:37:25.879	0.008204
09:37:26.179	-0.014857
09:37:26.579	-0.002951
09:37:26.879	-0.017505
09:37:27.179	-0.002812
09:37:27.580	0.009516
09:37:27.879	0.021369
09:37:28.279	-0.017001
09:37:28.579	0.004268
09:37:28.979	-0.008872
09:37:29.279	-0.004637
09:37:29.679	0.008220
09:37:29.979	0.016617
09:37:30.379	0.013702
09:37:30.679	0.008952
09:37:31.079	-0.006860
09:37:31.379	-0.010121
09:37:31.779	0.003944
09:37:32.079	0.004406
09:37:32.479	-0.002641
09:37:32.779	-0.004047
09:37:33.179	-0.005492
09:37:33.479	0.006086
09:37:33.879	-0.011645
09:37:34.179	-0.004035
09:37:34.479	0.013181
09:37:34.880	0.003034
09:37:35.179	0.011332
09:37:35.579	-0.001290
09:37:35.879	-0.006952
09:37:36.279	0.009852
09:37:36.579	-0.009239
09:37:36.979	-0.005001
09:37:37.279	-0.003262
09:37:37.679	0.012694
09:37:37.979	-0.002727
09:37:38.279	-0.004120
09:37:38.680	-0.010918
09:37:38.979	-0.004250
09:37:39.379	0.007656
09:37:39.679	0.012153
09:37:40.079	0.008710
09:37:40.379	-0.001160
09:37:40.779	0.006339
09:37:41.080	0.008378
09:37:41.479	-0.005928
09:37:41.780	-0.000493
09:37:42.180	-0.007717
09:37:42.479	0.003899
09:37:42.879	-0.008273
09:37:43.179	0.015935
09:37:43.479	0.011800
09:37:43.879	-0.007240
09:37:44.179	0.009353
09:37:44.580	-0.004093
09:37:44.880	0.003401
09:37:45.280	-0.004065
09:37:45.579	-0.004953
09:37:45.980	-0.000859
09:37:46.279	-0.000160
09:37:46.679	0.012699
09:37:46.980	0.002645
09:37:47.379	0.008459
09:37:47.679	0.010858
09:37:48.079	-0.002909
09:37:48.379	-0.001887
09:37:48.780	-0.005597
09:37:49.080	-0.004686
09:37:49.379	0.005418
09:37:49.779	0.001951
09:37:50.079	0.003076
09:37:50.480	0.004902
09:37:50.780	0.007076
09:37:51.179	0.000849
09:37:51.479	-0.009468
09:37:51.879	-0.008218
09:37:52.179	0.003503
09:37:52.579	0.001317
09:37:52.880	-0.003375
09:37:53.279	-0.006002
09:37:53.579	0.007637
09:37:53.979	0.007768
09:37:54.280	0.003636
09:37:54.579	0.002829
09:37:54.979	0.004275
09:37:55.280	-0.000373
09:37:55.581	-0.007428
09:37:55.980	-0.003861
09:37:56.279	0.009034
09:37:56.580	-0.004643
09:37:56.979	0.001894
09:37:57.280	0.006475
09:37:57.680	-0.011322
09:37:57.979	-0.022565
09:37:58.379	0.009081
09:37:58.680	0.011474
09:37:59.080	0.007858
09:37:59.380	-0.005223
09:37:59.679	0.000018
09:38:00.079	0.001484
09:38:00.380	0.011347
09:38:00.779	0.003618
09:38:01.079	-0.005572
09:38:01.379	-0.009654
09:38:01.779	-0.027062
09:38:02.079	-0.010891
09:38:02.480	-0.002087
09:38:02.779	-0.000736
09:38:03.179	0.002210
09:38:03.480	0.005792
09:38:03.779	-0.002789
09:38:04.180	-0.009069
09:38:04.480	-0.012459
09:38:04.879	-0.003792
09:38:05.179	-0.005400
09:38:05.580	-0.007520
09:38:05.880	-0.012333
09:38:06.280	0.016246
09:38:06.580	0.018272
09:38:06.980	-0.002443
09:38:07.279	-0.001224
09:38:07.679	0.006902
09:38:07.979	-0.004124
09:38:08.380	-0.016525
09:38:08.680	-0.009154
09:38:08.980	-0.002201
09:38:09.380	0.000754
09:38:09.679	0.000613
09:38:10.079	0.004686
09:38:10.380	-0.003834
09:38:10.680	0.005943
09:38:11.080	0.000727
09:38:11.380	0.000261
09:38:11.779	-0.006289
09:38:12.080	0.006773
09:38:12.480	-0.001010
09:38:12.780	0.002228
09:38:13.180	-0.004569
09:38:13.479	0.006516
09:38:13.880	-0.000422
09:38:14.180	-0.005320
09:38:14.580	-0.001888
09:38:14.880	0.000121
09:38:15.280	-0.004362
09:38:15.579	-0.006439
09:38:15.979	0.004149
09:38:16.280	0.005348
09:38:16.580	-0.012901
09:38:16.980	-0.012287
09:38:17.280	-0.004546
09:38:17.680	-0.011389
09:38:17.980	-0.005066
09:38:18.380	-0.006506
09:38:18.680	0.005285
09:38:19.080	0.003977
09:38:19.380	-0.008128
09:38:19.779	0.002855
09:38:20.081	-0.003350
09:38:20.480	-0.011769
09:38:20.780	-0.004850
09:38:21.180	-0.009352
09:38:21.480	0.000058
09:38:21.880	0.021220
09:38:22.179	0.013257
09:38:22.580	0.000095
09:38:22.880	-0.001375
09:38:23.280	0.002352
09:38:23.579	-0.006702
09:38:23.980	-0.000103
09:38:24.280	0.009502
09:38:24.580	0.007131
09:38:24.980	-0.005173
09:38:25.280	-0.007063
09:38:25.680	-0.001248
09:38:25.979	-0.002088
09:38:26.380	-0.015837
09:38:26.680	-0.013742
09:38:27.080	-0.006295
09:38:27.380	0.000418
09:38:27.779	-0.005469
09:38:28.080	-0.006153
09:38:28.480	-0.006545
09:38:28.780	-0.003203
09:38:29.180	-0.006695
09:38:29.480	-0.006039
09:38:29.880	-0.010815
09:38:30.179	-0.012310
09:38:30.580	-0.010257
09:38:30.880	0.004925
09:38:31.280	-0.000624
09:38:31.580	0.007843
09:38:31.880	-0.003386
09:38:32.280	-0.016394
09:38:32.579	-0.006939
09:38:32.979	-0.006915
09:38:33.279	-0.002966
09:38:33.580	-0.001497
09:38:33.980	0.001522
09:38:34.280	-0.003399
09:38:34.680	0.005952
09:38:34.980	0.006746
09:38:35.280	0.002514
09:38:35.680	-0.005190
09:38:35.980	-0.003223
09:38:36.379	-0.006249
09:38:36.680	-0.005998
09:38:37.080	-0.006122
09:38:37.380	-0.006959
09:38:37.780	-0.000701
09:38:38.180	0.000752
09:38:38.479	0.015943
09:38:38.780	-0.000664
09:38:39.181	-0.008968
09:38:39.480	-0.012864
09:38:39.879	-0.008125
09:38:40.179	-0.002945
09:38:40.580	-0.002438
09:38:40.880	-0.009431
09:38:41.279	-0.007327
09:38:41.580	0.001983
09:38:41.980	-0.011069
09:38:42.279	-0.018086
09:38:42.680	-0.001380
09:38:42.979	-0.006427
09:38:43.380	-0.011523
09:38:43.679	-0.007218
09:38:44.080	-0.002532
09:38:44.380	-0.005642
09:38:44.780	-0.004644
09:38:45.080	0.002949
09:38:45.480	0.000413
09:38:45.780	0.003665
09:38:46.179	-0.002634
09:38:46.480	-0.011125
09:38:46.780	-0.006566
09:38:47.179	-0.006067
09:38:47.479	0.007948
09:38:47.780	0.001628
09:38:48.180	-0.002813
09:38:48.479	-0.006118
09:38:48.880	-0.011919
09:38:49.280	-0.002206
09:38:49.581	-0.008686
09:38:49.980	-0.006155
09:38:50.279	-0.004876
09:38:50.680	0.005145
09:38:50.980	0.000971
09:38:51.379	-0.002819
09:38:51.680	-0.004477
09:38:51.979	-0.002886
09:38:52.379	-0.007764
09:38:52.680	-0.009453
09:38:52.980	0.001122
09:38:53.379	-0.006129
09:38:53.680	-0.000481
09:38:54.080	-0.002408
09:38:54.380	-0.013691
09:38:54.779	-0.005277
09:38:55.080	-0.001148
09:38:55.480	-0.000306
09:38:55.779	-0.001305
09:38:56.180	0.001010
09:38:56.480	-0.010837
09:38:56.779	-0.010541
09:38:57.180	0.000569
09:38:57.480	-0.000627
09:38:57.880	-0.009129
09:38:58.180	-0.012820
09:38:58.580	0.005060
09:38:58.879	-0.001686
09:38:59.280	-0.016200
09:38:59.580	-0.016499
09:38:59.980	-0.005087
09:39:00.279	-0.006287
09:39:00.580	0.003836
09:39:00.980	0.000225
09:39:01.280	-0.008589
09:39:01.580	-0.007970
09:39:01.980	0.000556
09:39:02.280	-0.002375
09:39:02.680	-0.004634
09:39:02.980	0.003164
09:39:03.380	-0.007638
09:39:03.680	0.002855
09:39:03.980	0.004561
09:39:04.380	-0.016285
09:39:04.780	-0.009364
09:39:05.080	-0.004176
09:39:05.480	-0.001080
09:39:05.780	0.002366
09:39:06.080	-0.005156
09:39:06.480	-0.004432
09:39:06.780	-0.000026
09:39:07.180	0.003049
09:39:07.480	0.002524
09:39:07.879	0.004580
09:39:08.180	0.001534
09:39:08.580	0.000472
09:39:08.880	0.010857
09:39:09.280	-0.010473
09:39:09.580	-0.011379
09:39:09.879	0.008147
09:39:10.280	0.001522
09:39:10.580	-0.006225
09:39:10.979	-0.000001
09:39:11.280	0.004070
09:39:11.679	0.000524
09:39:11.979	-0.005281
09:39:12.379	0.006216
09:39:12.680	0.001460
09:39:13.080	-0.004056
09:39:13.379	-0.007735
09:39:13.780	-0.000189
09:39:14.079	-0.002030
09:39:14.479	0.000678
09:39:14.780	0.000010
09:39:15.080	-0.000703
09:39:15.480	0.005766
09:39:15.780	0.007512
09:39:16.180	-0.018653
09:39:16.480	-0.016176
09:39:16.880	0.003582
09:39:17.180	0.010931
09:39:17.580	-0.005003
09:39:17.879	-0.001854
09:39:18.180	-0.002588
09:39:18.579	-0.001440
09:39:18.879	-0.003886
09:39:19.181	-0.003583
09:39:19.579	-0.015495
09:39:19.880	-0.028311
09:39:20.180	-0.014329
09:39:20.580	0.008743
09:39:20.880	-0.008573
09:39:21.279	-0.001440
09:39:21.580	0.007452
09:39:21.980	0.000216
09:39:22.280	0.001476
09:39:22.680	0.016979
09:39:22.979	0.002162
09:39:23.281	-0.000288
09:39:23.680	0.001599
09:39:23.980	-0.000280
09:39:24.380	0.005248
09:39:24.680	0.003847
09:39:25.080	0.006700
09:39:25.380	0.004449
09:39:25.780	-0.003726
09:39:26.081	-0.000794
09:39:26.480	-0.008406
09:39:26.780	-0.007151
09:39:27.180	-0.002372
09:39:27.480	0.004816
09:39:27.780	-0.004721
09:39:28.180	0.001078
09:39:28.480	0.004880
09:39:28.880	0.001863
09:39:29.180	-0.000876
09:39:29.580	0.002669
09:39:29.880	0.004203
09:39:30.280	0.004754
09:39:30.580	0.006880
09:39:30.980	0.003780
09:39:31.279	0.003955
09:39:31.680	0.001671
09:39:31.980	-0.002431
09:39:32.380	-0.004936
09:39:32.681	0.001361
09:39:33.080	0.001372
09:39:33.379	-0.007492
09:39:33.779	0.003397
09:39:34.079	0.003559
09:39:34.480	0.003876
09:39:34.780	0.000650
09:39:35.180	-0.000683
09:39:35.480	-0.004942
09:39:35.880	-0.002737
09:39:36.180	0.000306
09:39:36.580	-0.002663
09:39:36.880	-0.004451
09:39:37.280	-0.003056
09:39:37.580	-0.008015
09:39:37.980	-0.000024
09:39:38.280	-0.000102
09:39:38.680	-0.003319
09:39:38.980	-0.009684
09:39:39.380	0.003521
09:39:39.681	-0.005625
09:39:40.080	-0.004201
09:39:40.380	0.002317
09:39:40.780	0.000759
09:39:41.080	-0.000759
09:39:41.380	0.007000
09:39:41.780	0.002490
09:39:42.080	0.009392
09:39:42.380	0.001446
09:39:42.779	0.004209
09:39:43.080	-0.004443
09:39:43.380	-0.001174
09:39:43.780	-0.005356
09:39:44.080	0.005614
09:39:44.480	0.008045
09:39:44.780	0.002204
09:39:45.180	0.002263
09:39:45.480	-0.005304
09:39:45.880	0.014876
09:39:46.179	0.002676
09:39:46.580	0.020309
09:39:46.879	0.017028
09:39:47.280	0.041795
09:39:47.580	0.102555
09:39:47.979	0.227348
09:39:48.280	0.284741
09:39:48.680	0.547958
09:39:48.980	0.696666
09:39:49.280	0.731445
09:39:49.680	0.547100
09:39:49.980	0.314057
09:39:50.280	0.221083
09:39:50.680	0.148856
09:39:50.980	0.144128
09:39:51.380	0.143889
09:39:51.680	0.117555
09:39:52.080	0.092574
09:39:52.380	0.064622
09:39:52.780	0.053196
09:39:53.080	0.080109
09:39:53.480	0.111209
09:39:53.780	0.100771
09:39:54.179	0.080542
09:39:54.480	0.027282
09:39:54.879	-0.002459
09:39:55.181	-0.003274
09:39:55.580	-0.010062
09:39:55.880	0.011603
09:39:56.180	0.006109
09:39:56.580	0.009120
09:39:56.880	-0.001498
09:39:57.280	0.002260
09:39:57.580	0.004295
09:39:57.980	-0.010488
09:39:58.280	-0.001540
09:39:58.680	0.006459
09:39:58.980	0.003742
09:39:59.380	-0.006001
09:39:59.680	0.002576
09:40:00.080	-0.006212
09:40:00.380	-0.007074
09:40:00.780	-0.011264
09:40:01.080	-0.001893
09:40:01.380	-0.001756
09:40:01.780	-0.001280
09:40:02.080	-0.000173
09:40:02.479	0.006413
09:40:02.780	0.002018
09:40:03.180	0.001254
09:40:03.480	-0.001913
09:40:03.879	-0.004851
09:40:04.180	-0.011805
09:40:04.480	-0.004812
09:40:04.880	0.015718
09:40:05.180	0.016735
09:40:05.480	0.005656
09:40:05.880	0.007367
09:40:06.180	-0.003139
09:40:06.480	-0.001575
09:40:06.880	-0.010677
09:40:07.180	-0.004553
09:40:07.580	0.004805
09:40:07.880	-0.001102
09:40:08.180	-0.009154
09:40:08.580	-0.011807
09:40:08.880	0.006836
09:40:09.280	0.033870
09:40:09.580	0.022993
09:40:09.980	-0.008119
09:40:10.280	0.004616
09:40:10.680	-0.002047
09:40:10.980	-0.001971
09:40:11.380	-0.002138
09:40:11.680	-0.009338
09:40:12.080	-0.004649
09:40:12.380	-0.002937
09:40:12.780	-0.003803
09:40:13.080	0.001594
09:40:13.480	-0.001407
09:40:13.780	0.005457
09:40:14.180	0.007222
09:40:14.480	-0.001567
09:40:14.880	0.001237
09:40:15.180	-0.002263
09:40:15.480	0.006119
09:40:15.880	0.003105
09:40:16.180	-0.007047
09:40:16.580	-0.012186
09:40:16.880	-0.010698
09:40:17.280	0.002983
09:40:17.580	0.000437
09:40:17.980	-0.005381
09:40:18.280	0.001728
09:40:18.580	0.006318
09:40:18.980	-0.005825
09:40:19.280	-0.006945
09:40:19.580	-0.001620
09:40:19.980	-0.004215
09:40:20.280	-0.004177
09:40:20.581	-0.001216
09:40:20.981	0.014928
09:40:21.280	0.005520
09:40:21.680	0.004099
09:40:21.980	-0.001413
09:40:22.380	0.002707
09:40:22.680	-0.006801
09:40:23.080	-0.003443
09:40:23.380	0.004891
09:40:23.780	0.004849
09:40:24.080	-0.002038
09:40:24.380	0.002870
09:40:24.780	0.008058
09:40:25.080	0.003264
09:40:25.480	0.000241
09:40:25.780	-0.002383
09:40:26.180	0.011259
09:40:26.480	-0.004667
09:40:26.880	-0.003454
09:40:27.180	0.003244
09:40:27.580	0.010673
09:40:27.881	-0.008222
09:40:28.280	-0.012774
09:40:28.580	-0.008031
09:40:28.980	0.001997
09:40:29.280	0.003619
09:40:29.680	0.008677
09:40:29.980	0.000430
09:40:30.380	-0.030981
09:40:30.680	-0.009183
09:40:31.080	-0.001530
09:40:31.380	-0.008945
09:40:31.680	-0.006129
09:40:32.080	-0.000471
09:40:32.380	0.001710
09:40:32.780	0.001711
09:40:33.080	-0.000894
09:40:33.380	-0.002128
09:40:33.780	-0.007961
09:40:34.080	-0.013953
09:40:34.480	0.006802
09:40:34.780	-0.015560
09:40:35.180	0.000350
09:40:35.480	0.005571
09:40:35.880	0.001597
09:40:36.180	-0.014357
09:40:36.580	0.000903
09:40:36.880	0.005438
09:40:37.281	-0.000784
09:40:37.580	-0.007650
09:40:37.980	-0.008065
09:40:38.280	-0.008815
09:40:38.580	-0.011340
09:40:38.980	-0.008772
09:40:39.281	-0.001983
09:40:39.680	-0.006580
09:40:39.980	-0.011018
09:40:40.380	-0.008779
09:40:40.680	0.001699
09:40:41.080	0.030889
09:40:41.380	0.013856
09:40:41.780	-0.003759
09:40:42.080	-0.015682
09:40:42.480	0.151190
09:40:42.780	0.047335
09:40:43.180	0.019468
09:40:43.480	0.022828
09:40:43.880	0.019117
09:40:44.180	0.010294
09:40:44.580	0.019265
09:40:44.881	0.020676
09:40:45.280	0.019669
09:40:45.580	0.020090
09:40:45.980	0.022640
09:40:46.280	0.017935
09:40:46.681	0.016396
09:40:46.980	0.019863
09:40:47.380	0.027543
09:40:47.681	0.030678
09:40:48.082	0.015819
09:40:48.380	0.024117
09:40:48.780	0.019645
09:40:49.080	0.022095
09:40:49.481	0.020321
09:40:49.780	0.019503
09:40:50.180	0.018405
09:40:50.480	0.032807
09:40:50.880	0.007073
09:40:51.180	0.004102
09:40:51.481	0.021680
09:40:51.881	0.024485
09:40:52.181	0.016997
09:40:52.581	0.010106
09:40:52.880	0.018015
09:40:53.280	0.015691
09:40:53.580	0.032104
09:40:53.981	0.048927
09:40:54.281	0.025156
09:40:54.680	0.012401
09:40:54.980	0.014059
09:40:55.380	0.020331
09:40:55.681	0.007292
09:40:56.080	0.029784
09:40:56.381	0.036408
09:40:56.680	0.017162
09:40:57.081	0.018631
09:40:57.380	0.024805
09:40:57.781	0.013989
09:40:58.081	0.005086
09:40:58.480	0.014241
09:40:58.780	0.031647
09:40:59.181	0.005592
09:40:59.480	0.010164
09:40:59.880	0.021880
09:41:00.181	0.008510
09:41:00.481	0.006678
09:41:00.880	0.015901
09:41:01.181	0.023053
09:41:01.480	0.015432
09:41:01.880	0.017327
09:41:02.181	-0.039982
09:41:02.480	0.014123
09:41:02.881	0.020460
09:41:03.181	0.031019
09:41:03.480	0.022314
09:41:03.881	0.026594
09:41:04.181	0.029637
09:41:04.581	0.017893
09:41:04.880	0.015890
09:41:05.280	0.016617
09:41:05.580	0.019704
09:41:05.981	0.026241
09:41:06.281	0.021484
09:41:06.681	0.011518
09:41:06.980	0.013808
09:41:07.280	0.023235
09:41:07.681	0.023182
09:41:07.981	0.027000
09:41:08.380	0.026049
09:41:08.680	0.021621
09:41:09.081	0.021839
09:41:09.380	0.019687
09:41:09.781	0.014898
09:41:10.080	0.008819
09:41:10.480	0.019795
09:41:10.780	0.014322
09:41:11.180	0.022069
09:41:11.481	0.020997
09:41:11.880	0.012771
09:41:12.181	0.013385
09:41:12.481	0.021862
09:41:12.881	0.020286
09:41:13.181	0.009409
09:41:13.580	0.018557
09:41:13.880	0.017205
09:41:14.280	0.024720
09:41:14.580	-0.013168
09:41:14.980	0.047660
09:41:15.281	0.025405
09:41:15.580	-0.100854
09:41:15.980	0.088388
09:41:16.280	0.040240
09:41:16.580	0.026282
09:41:16.980	0.029645
09:41:17.281	0.032919
09:41:17.581	0.027776
09:41:17.981	0.022651
09:41:18.281	0.029700
09:41:18.682	0.039157
09:41:18.981	0.034326
09:41:19.381	0.025254
09:41:19.681	0.031208
09:41:20.080	0.014415
09:41:20.382	0.014862
09:41:20.780	0.009808
09:41:21.081	0.011431
09:41:21.480	0.015773
09:41:21.780	0.022408
09:41:22.180	0.020595
09:41:22.481	0.019612
09:41:22.780	0.007648
09:41:23.181	0.004682
09:41:23.480	0.017524
09:41:23.880	0.020865
09:41:24.181	0.013536
09:41:24.581	0.019064
09:41:24.882	0.017710
09:41:25.181	0.020493
09:41:25.581	0.015888
09:41:25.881	0.024868
09:41:26.281	0.011748
09:41:26.580	0.015345
09:41:26.981	0.031733
09:41:27.280	0.040478
09:41:27.680	0.031445
09:41:27.981	0.023909
09:41:28.381	0.016532
09:41:28.681	0.026689
09:41:29.081	0.013445
09:41:29.381	0.015235
09:41:29.780	0.013735
09:41:30.080	0.006448
09:41:30.481	0.015293
09:41:30.780	0.023368
09:41:31.181	0.021143
09:41:31.481	0.020227
09:41:31.880	0.014039
09:41:32.181	0.005095
09:41:32.581	0.016349
09:41:32.881	0.012534
09:41:33.281	0.007208
09:41:33.580	0.014787
09:41:33.881	0.005669
09:41:34.281	0.017678
09:41:34.581	0.020517
09:41:34.980	0.012409
09:41:35.281	0.015214
09:41:35.581	0.011122
09:41:35.981	0.010747
09:41:36.280	0.021435
09:41:36.680	0.014284
09:41:36.981	0.019966
09:41:37.380	0.015937
09:41:37.681	0.018042
09:41:37.981	0.016054
09:41:38.381	0.024671
09:41:38.681	0.016300
09:41:38.981	0.014418
09:41:39.380	0.012650
09:41:39.680	0.017691
09:41:40.081	0.024687
09:41:40.381	0.025051
09:41:40.781	0.024999
09:41:41.080	0.016833
09:41:41.481	0.018213
09:41:41.781	0.019653
09:41:42.181	0.010524
09:41:42.481	0.013196
09:41:42.881	0.009887
09:41:43.180	0.022067
09:41:43.581	0.014222
09:41:43.881	0.017173
09:41:44.181	0.019458
09:41:44.581	0.011382
09:41:44.881	0.009751
09:41:45.281	0.021461
09:41:45.580	0.027759
09:41:45.981	0.006945
09:41:46.281	0.024623
09:41:46.680	0.023725
09:41:46.980	0.017966
09:41:47.381	0.019411
09:41:47.682	0.016673
09:41:47.981	0.013702
09:41:48.381	0.021162
09:41:48.680	0.028651
09:41:49.080	0.018679
09:41:49.380	0.018834
09:41:49.780	0.010191
09:41:50.081	0.007945
09:41:50.481	0.017936
09:41:50.781	0.012144
09:41:51.181	0.026209
09:41:51.481	0.021691
09:41:51.781	0.020922
09:41:52.181	0.011443
09:41:52.480	0.017714
09:41:52.881	0.003749
09:41:53.180	0.004612
09:41:53.581	0.019943
09:41:53.880	0.014985
09:41:54.280	0.014712
09:41:54.581	0.019969
09:41:54.980	0.008480
09:41:55.281	0.016894
09:41:55.680	0.017203
09:41:55.981	0.022552
09:41:56.381	0.011652
09:41:56.681	0.014422
09:41:56.980	0.011531
09:41:57.381	0.015287
09:41:57.681	0.024415
09:41:58.080	0.021047
09:41:58.381	0.013841
09:41:58.681	0.012540
09:41:59.081	0.014601
09:41:59.380	0.011842
09:41:59.780	0.019417
09:42:00.081	0.016332
09:42:00.480	0.007318
09:42:00.780	0.010254
09:42:01.080	0.017162
09:42:01.481	0.026277
09:42:01.781	0.020009
09:42:02.081	0.019578
09:42:02.481	0.021868
09:42:02.780	0.020090
09:42:03.180	0.011335
09:42:03.480	0.008184
09:42:03.880	0.021929
09:42:04.181	0.030922
09:42:04.482	0.035351
09:42:04.881	0.014920
09:42:05.181	0.019021
09:42:05.581	0.024073
09:42:05.881	0.021235
09:42:06.181	0.017783
09:42:06.580	0.014556
09:42:06.881	0.014835
09:42:07.281	0.015550
09:42:07.580	0.028074
09:42:07.981	0.018670
09:42:08.281	0.019403
09:42:08.680	0.021251
09:42:08.980	0.021824
09:42:09.381	0.021290
09:42:09.681	0.010933
09:42:10.081	0.015646
09:42:10.381	0.014567
09:42:10.781	0.018315
09:42:11.080	0.020324
09:42:11.480	0.026786
09:42:11.781	0.016008
09:42:12.181	0.028721
09:42:12.481	0.027894
09:42:12.880	0.019774
09:42:13.181	0.019894
09:42:13.481	0.018516
09:42:13.881	0.018823
09:42:14.181	0.018499
09:42:14.581	0.026344
09:42:14.881	0.025041
09:42:15.280	0.017583
09:42:15.580	0.014821
09:42:15.981	0.009814
09:42:16.280	0.024525
09:42:16.680	0.023427
09:42:16.981	0.016546
09:42:17.381	0.024792
09:42:17.681	0.021797
09:42:18.081	0.011824
09:42:18.381	0.014165
09:42:18.780	0.013057
09:42:19.081	0.011414
09:42:19.481	0.019420
09:42:19.780	0.021753
09:42:20.181	0.023129
09:42:20.481	0.019796
09:42:20.881	0.031783
09:42:21.181	0.025471
09:42:21.581	0.020424
09:42:21.881	0.021965
09:42:22.281	0.021634
09:42:22.582	0.027386
09:42:22.981	0.035843
09:42:23.282	0.003309
09:42:23.681	0.010556
09:42:23.981	0.015601
09:42:24.381	0.015090
09:42:24.681	0.015600
09:42:25.081	0.010749
09:42:25.381	0.025216
09:42:25.781	0.032378
09:42:26.081	0.027567
09:42:26.480	0.015086
09:42:26.781	-0.005733
09:42:27.181	-0.040112
09:42:27.481	-0.017232
09:42:27.880	0.003002
09:42:28.181	0.012495
09:42:28.581	0.003366
09:42:28.881	0.003790
09:42:29.181	0.008683
09:42:29.581	0.006399
09:42:29.880	0.007860
09:42:30.281	0.003622
09:42:30.581	0.011011
09:42:30.881	0.010037
09:42:31.281	0.011136
09:42:31.581	0.007462
09:42:31.980	0.010087
09:42:32.281	0.008102
09:42:32.681	0.008683
09:42:32.982	0.004869
09:42:33.380	0.012834
09:42:33.681	0.008586
09:42:34.081	0.011505
09:42:34.381	0.022234
09:42:34.781	0.011272
09:42:35.081	0.005654
09:42:35.381	0.001503
09:42:35.781	0.012910
09:42:36.081	0.011919
09:42:36.381	0.007341
09:42:36.781	0.013289
09:42:37.080	-0.001172
09:42:37.481	-0.006989
09:42:37.781	0.016996
09:42:38.181	0.014238
09:42:38.481	0.014841
09:42:38.881	0.010130
09:42:39.181	0.013705
09:42:39.581	0.017760
09:42:39.881	0.014974
09:42:40.181	0.011044
09:42:40.581	0.022036
09:42:40.881	0.012720
09:42:41.181	0.022850
09:42:41.581	0.035154
09:42:41.881	0.030938
09:42:42.181	0.020964
09:42:42.581	0.032950
09:42:42.881	0.021402
09:42:43.281	0.024040
09:42:43.581	0.026449
09:42:43.980	0.047952
09:42:44.281	0.031477
09:42:44.681	0.028193
09:42:44.981	0.012907
09:42:45.381	0.031119
09:42:45.681	0.053853
09:42:46.081	0.051801
09:42:46.381	0.047231
09:42:46.781	0.072178
09:42:47.081	0.058348
09:42:47.381	0.056609
09:42:47.781	0.061445
09:42:48.081	0.057217
09:42:48.481	0.062499
09:42:48.781	0.065868
09:42:49.181	0.062205
09:42:49.481	0.071867
09:42:49.881	0.081290
09:42:50.180	0.077951
09:42:50.581	0.093518
09:42:50.881	0.081820
09:42:51.281	0.079141
09:42:51.581	0.083383
09:42:51.981	0.076425
09:42:52.280	0.071358
09:42:52.681	0.075069
09:42:52.981	0.079513
09:42:53.381	0.076731
09:42:53.681	0.075284
09:42:54.081	0.075935
09:42:54.381	0.068063
09:42:54.781	0.097083
09:42:55.081	0.096203
09:42:55.481	0.107763
09:42:55.781	0.084804
09:42:56.181	0.095639
09:42:56.481	0.094534
09:42:56.881	0.092394
09:42:57.181	0.079966
09:42:57.581	0.090773
09:42:57.881	0.080826
09:42:58.181	0.102867
09:42:58.581	0.095065
09:42:58.881	0.083143
09:42:59.281	0.092653
09:42:59.580	0.092765
09:42:59.981	0.084166
09:43:00.281	0.060771
09:43:00.681	0.083843
09:43:00.982	0.080923
09:43:01.281	0.071737
09:43:01.681	0.085349
09:43:01.981	0.086098
09:43:02.381	0.099490
09:43:02.681	0.097966
09:43:03.081	0.094994
09:43:03.381	0.093607
09:43:03.781	0.088766
09:43:04.080	0.067588
09:43:04.481	0.072541
09:43:04.781	0.069350
09:43:05.181	0.061255
09:43:05.581	0.086711
09:43:05.881	0.092835
09:43:06.280	0.084240
09:43:06.581	0.085956
09:43:06.981	0.071860
09:43:07.280	0.079875
09:43:07.681	0.083903
09:43:07.981	0.089049
09:43:08.381	0.101059
09:43:08.681	0.105577
09:43:09.081	0.089558
09:43:09.381	0.075065
09:43:09.781	0.081160
09:43:10.081	0.085256
09:43:10.481	0.087220
09:43:10.781	0.081338
09:43:11.181	0.074428
09:43:11.481	0.077865
09:43:11.881	0.077625
09:43:12.181	0.085064
09:43:12.581	0.079111
09:43:12.881	0.085913
09:43:13.281	0.085509
09:43:13.581	0.072274
09:43:13.981	0.067916
09:43:14.281	0.072744
09:43:14.681	0.080310
09:43:14.981	0.080195
09:43:15.381	0.068688
09:43:15.681	0.070027
09:43:16.081	0.093072
09:43:16.381	0.090101
09:43:16.781	0.077757
09:43:17.081	0.082024
09:43:17.381	0.081770
09:43:17.781	0.070056
09:43:18.081	0.077579
09:43:18.381	0.079707
09:43:18.781	0.087921
09:43:19.081	0.085132
09:43:19.481	0.082847
09:43:19.781	0.082775
09:43:20.181	0.081404
09:43:20.481	0.088994
09:43:20.880	0.086824
09:43:21.181	0.084502
09:43:21.581	0.094282
09:43:21.881	0.101539
09:43:22.281	0.086088
09:43:22.581	0.095176
09:43:22.881	0.093560
09:43:23.281	0.099152
09:43:23.581	0.085550
09:43:23.981	0.082308
09:43:24.281	0.084212
09:43:24.581	0.087471
09:43:24.981	0.105263
09:43:25.281	0.102361
09:43:25.681	0.091894
09:43:25.981	0.100915
09:43:26.381	0.078284
09:43:26.681	0.082409
09:43:27.081	0.068595
09:43:27.381	0.084940
09:43:27.781	0.093315
09:43:28.081	0.091138
09:43:28.381	0.077649
09:43:28.781	0.086177
09:43:29.081	0.083904
09:43:29.481	0.078469
09:43:29.781	0.095717
09:43:30.181	0.102649
09:43:30.482	0.089623
09:43:30.881	0.084810
09:43:31.181	0.086115
09:43:31.581	0.095222
09:43:31.881	0.099213
09:43:32.281	0.076748
09:43:32.581	0.087026
09:43:32.981	0.089841
09:43:33.281	0.101260
09:43:33.681	0.114936
09:43:33.981	0.106469
09:43:34.381	0.099391
09:43:34.681	0.084550
09:43:35.081	0.089784
09:43:35.381	0.087848
09:43:35.781	0.098913
09:43:36.081	0.091091
09:43:36.481	0.086649
09:43:36.781	0.100757
09:43:37.181	0.085580
09:43:37.481	0.086494
09:43:37.881	0.096910
09:43:38.181	0.083992
09:43:38.581	0.097277
09:43:38.882	0.107376
09:43:39.282	0.107543
09:43:39.581	0.100213
09:43:39.981	0.110834
09:43:40.281	0.098973
09:43:40.681	0.082203
09:43:40.981	0.087556
09:43:41.381	0.082389
09:43:41.681	0.083879
09:43:42.081	0.094056
09:43:42.382	0.099993
09:43:42.681	0.093946
09:43:43.081	0.106416
09:43:43.381	0.092275
09:43:43.781	0.094817
09:43:44.081	0.110775
09:43:44.482	0.104240
09:43:44.782	0.101054
09:43:45.181	0.102498
09:43:45.482	0.115881
09:43:45.881	0.110859
09:43:46.181	0.107311
09:43:46.481	0.115887
09:43:46.881	0.102074
09:43:47.181	0.095375
09:43:47.582	0.086515
09:43:47.881	0.121799
09:43:48.281	0.101000
09:43:48.581	0.110891
09:43:48.981	0.123023
09:43:49.281	0.119237
09:43:49.581	0.121552
09:43:49.981	0.127048
09:43:50.281	0.127684
09:43:50.681	0.119033
09:43:50.981	0.140915
09:43:51.381	0.121754
09:43:51.681	0.112777
09:43:52.082	0.110743
09:43:52.381	0.130441
09:43:52.781	0.131229
09:43:53.081	0.124922
09:43:53.482	0.140682
09:43:53.781	0.161340
09:43:54.181	0.175544
09:43:54.481	0.155955
09:43:54.881	0.169270
09:43:55.182	0.171924
09:43:55.581	0.183053
09:43:55.882	0.195442
09:43:56.281	0.222402
09:43:56.582	0.201236
09:43:56.982	0.204859
09:43:57.282	0.206179
09:43:57.681	0.214372
09:43:57.981	0.218554
09:43:58.382	0.208122
09:43:58.681	0.232170
09:43:59.082	0.250679
09:43:59.382	0.252816
09:43:59.781	0.251416
09:44:00.081	0.288599
09:44:00.481	0.303037
09:44:00.782	0.274126
09:44:01.181	0.276714
09:44:01.482	0.306069
09:44:01.881	0.317748
09:44:02.182	0.326305
09:44:02.481	0.309179
09:44:02.881	0.287627
09:44:03.182	0.295121
09:44:03.581	0.293071
09:44:03.881	0.294571
09:44:04.281	0.257659
09:44:04.581	0.239638
09:44:04.982	0.225074
09:44:05.282	0.203851
09:44:05.682	0.190270
09:44:06.082	0.171675
09:44:06.381	0.166425
09:44:06.682	0.177115
09:44:07.081	0.162280
09:44:07.382	0.145597
09:44:07.681	0.139170
09:44:08.082	0.134650
09:44:08.381	0.128300
09:44:08.781	0.106008
09:44:09.082	0.091262
09:44:09.481	0.111955
09:44:09.782	0.098979
09:44:10.181	0.113687
09:44:10.482	0.119268
09:44:10.882	0.102866
09:44:11.181	0.116731
09:44:11.581	0.126595
09:44:11.881	0.113822
09:44:12.282	0.114357
09:44:12.582	0.109967
09:44:12.982	0.116999
09:44:13.282	0.106010
09:44:13.581	0.103356
09:44:13.981	0.123095
09:44:14.282	0.152936
09:44:14.682	0.150351
09:44:14.981	0.153511
09:44:15.282	0.160545
09:44:15.681	0.178997
09:44:15.981	0.194824
09:44:16.382	0.204616
09:44:16.681	0.242628
09:44:17.081	0.272686
09:44:17.382	0.292579
09:44:17.782	0.351961
09:44:18.082	0.383943
09:44:18.482	0.458828
09:44:18.782	0.511968
09:44:19.181	0.571626
09:44:19.481	0.616656
09:44:19.881	0.696742
09:44:20.181	0.809129
09:44:20.582	0.923165
09:44:20.882	0.982201
09:44:21.281	1.142064
09:44:21.582	1.290029
09:44:21.882	1.361662
09:44:22.282	1.685772
09:44:22.582	1.906997
09:44:22.982	2.124509
09:44:23.282	2.163363
09:44:23.681	2.130327
09:44:23.981	2.036502
09:44:24.382	1.807236
09:44:24.682	1.714040
09:44:25.081	1.473038
09:44:25.382	1.296038
09:44:25.782	1.096287
09:44:26.082	0.931337
09:44:26.482	0.796327
09:44:26.781	0.747702
09:44:27.182	0.709796
09:44:27.481	0.615885
09:44:27.781	0.592139
09:44:28.182	0.552984
09:44:28.482	0.511803
09:44:28.882	0.434011
09:44:29.182	0.402025
09:44:29.582	0.330296
09:44:29.881	0.295913
09:44:30.282	0.283396
09:44:30.582	0.280865
09:44:30.982	0.236952
09:44:31.281	0.183579
09:44:31.682	0.174355
09:44:31.982	0.192737
09:44:32.382	0.178577
09:44:32.681	0.158746
09:44:33.082	0.159752
09:44:33.382	0.174855
09:44:33.782	0.147938
09:44:34.082	0.126319
09:44:34.482	0.114194
09:44:34.782	0.119539
09:44:35.082	0.115749
09:44:35.482	0.132056
09:44:35.782	0.130209
09:44:36.082	0.121335
09:44:36.481	0.115716
09:44:36.782	0.119009
09:44:37.182	0.116628
09:44:37.482	0.123811
09:44:37.882	0.117196
09:44:38.181	0.123881
09:44:38.582	0.121171
09:44:38.883	0.119651
09:44:39.282	0.112048
09:44:39.582	0.133982
09:44:39.882	0.114034
09:44:40.281	0.121480
09:44:40.582	0.103820
09:44:40.982	0.101890
09:44:41.282	0.124612
09:44:41.581	0.108304
09:44:41.982	0.114337
09:44:42.281	0.118127
09:44:42.682	0.128106
09:44:42.981	0.135365
09:44:43.382	0.125891
09:44:43.682	0.117473
09:44:43.981	0.109510
09:44:44.382	0.102626
09:44:44.682	0.105389
09:44:45.081	0.111123
09:44:45.382	0.122816
09:44:45.782	0.110489
09:44:46.082	0.105052
09:44:46.482	0.115458
09:44:46.782	0.108507
09:44:47.082	0.106541
09:44:47.482	0.115192
09:44:47.781	0.098428
09:44:48.182	0.092912
09:44:48.482	0.102418
09:44:48.882	0.114735
09:44:49.181	0.094634
09:44:49.583	0.114373
09:44:49.882	0.115070
09:44:50.282	0.096998
09:44:50.582	0.095063
09:44:50.882	0.106728
09:44:51.282	0.104813
09:44:51.582	0.097566
09:44:51.981	0.105105
09:44:52.282	0.093880
09:44:52.681	0.104043
09:44:52.982	0.125478
09:44:53.382	0.122574
09:44:53.681	0.108891
09:44:53.982	0.101063
09:44:54.382	0.116317
09:44:54.682	0.120540
09:44:55.082	0.122770
09:44:55.482	0.095343
09:44:55.782	0.099556
09:44:56.182	0.106678
09:44:56.481	0.085518
09:44:56.881	0.109412
09:44:57.182	0.110660
09:44:57.582	0.114587
09:44:57.882	0.092640
09:44:58.282	0.100631
09:44:58.582	0.099360
09:44:58.982	0.112877
09:44:59.281	0.107816
09:44:59.682	0.123993
09:44:59.982	0.122698
09:45:00.382	0.110911
09:45:00.682	0.091422
09:45:01.082	0.098873
09:45:01.382	0.105208
09:45:01.782	0.131570
09:45:02.082	0.105651
09:45:02.482	0.082574
09:45:02.781	0.102315
09:45:03.181	0.109623
09:45:03.482	0.114069
09:45:03.882	0.098458
09:45:04.181	0.108010
09:45:04.581	0.086853
09:45:04.881	0.088418
09:45:05.182	0.098008
09:45:05.581	0.104691
09:45:05.881	0.117196
09:45:06.281	0.118405
09:45:06.582	0.102596
09:45:06.981	0.123236
09:45:07.282	0.119233
09:45:07.682	0.101189
09:45:07.982	0.089958
09:45:08.282	0.094191
09:45:08.682	0.094176
09:45:08.982	0.108316
09:45:09.382	0.111138
09:45:09.682	0.102589
09:45:10.082	0.103379
09:45:10.382	0.109211
09:45:10.781	0.102650
09:45:11.083	0.106941
09:45:11.482	0.098705
09:45:11.782	0.102797
09:45:12.182	0.115505
09:45:12.482	0.102949
09:45:12.782	0.102672
09:45:13.181	0.106065
09:45:13.482	0.110735
09:45:13.882	0.110004
09:45:14.182	0.118376
09:45:14.582	0.100918
09:45:14.882	0.093171
09:45:15.282	0.101129
09:45:15.582	0.100151
09:45:15.981	0.104197
09:45:16.282	0.104145
09:45:16.682	0.099029
09:45:16.982	0.104444
09:45:17.381	0.091099
09:45:17.681	0.096771
09:45:18.082	0.091692
09:45:18.382	0.098865
09:45:18.782	0.086236
09:45:19.082	0.093251
09:45:19.382	0.084691
09:45:19.782	0.054938
09:45:20.082	0.066773
09:45:20.482	0.086242
09:45:20.781	0.085635
09:45:21.182	0.102089
09:45:21.482	0.094192
09:45:21.882	0.086017
09:45:22.182	0.079688
09:45:22.582	0.084186
09:45:22.882	0.085598
09:45:23.281	0.066454
09:45:23.582	0.080198
09:45:23.982	0.080174
09:45:24.283	0.072472
09:45:24.682	0.092060
09:45:24.982	0.112671
09:45:25.382	0.081651
09:45:25.682	0.067599
09:45:26.082	0.069974
09:45:26.381	0.063991
09:45:26.782	0.061991
09:45:27.081	0.051580
09:45:27.482	0.066977
09:45:27.783	0.070979
09:45:28.182	0.064128
09:45:28.483	0.085019
09:45:28.882	0.099534
09:45:29.282	0.079562
09:45:29.582	0.110757
09:45:29.982	0.100033
09:45:30.282	0.089043
09:45:30.682	0.082013
09:45:30.981	0.059644
09:45:31.382	0.055076
09:45:31.682	0.057657
09:45:32.082	0.061094
09:45:32.382	0.083019
09:45:32.782	0.089702
09:45:33.081	0.092559
09:45:33.481	0.091141
09:45:33.782	0.101494
09:45:34.182	0.063276
09:45:34.482	0.050698
09:45:34.883	0.077867
09:45:35.182	0.095762
09:45:35.582	0.110157
09:45:35.882	0.101017
09:45:36.282	0.092057
09:45:36.582	0.088312
09:45:36.982	0.065604
09:45:37.282	0.061606
09:45:37.682	0.076970
09:45:37.982	0.077086
09:45:38.382	0.059961
09:45:38.682	0.058502
09:45:39.082	0.081870
09:45:39.382	0.083842
09:45:39.782	0.072662
09:45:40.082	0.084315
09:45:40.482	0.075758
09:45:40.782	0.070276
09:45:41.182	0.080246
09:45:41.482	0.081331
09:45:41.882	0.078399
09:45:42.182	0.069159
09:45:42.582	0.070186
09:45:42.882	0.067655
09:45:43.282	0.070440
09:45:43.582	0.079617
09:45:43.982	0.100828
09:45:44.283	0.089834
09:45:44.682	0.074357
09:45:44.982	0.070561
09:45:45.382	0.081202
09:45:45.682	0.093974
09:45:46.082	0.073611
09:45:46.381	0.093433
09:45:46.682	0.094507
09:45:47.082	0.077725
09:45:47.382	0.091962
09:45:47.782	0.095419
09:45:48.082	0.103056
09:45:48.382	0.083548
09:45:48.782	0.087033
09:45:49.082	0.084124
09:45:49.481	0.074154
09:45:49.782	0.079381
09:45:50.182	0.065762
09:45:50.481	0.058094
09:45:50.882	0.058246
09:45:51.182	0.072745
09:45:51.582	0.073850
09:45:51.882	0.063440
09:45:52.281	0.065552
09:45:52.583	0.069433
09:45:52.982	0.081125
09:45:53.282	0.066581
09:45:53.582	0.056866
09:45:53.982	0.059919
09:45:54.282	0.067144
09:45:54.682	0.062237
09:45:54.982	0.057409
09:45:55.382	0.064784
09:45:55.682	0.083575
09:45:56.082	0.065926
09:45:56.382	0.070274
09:45:56.782	0.063999
09:45:57.082	0.075044
09:45:57.482	0.068273
09:45:57.781	0.071334
09:45:58.182	0.068123
09:45:58.481	0.082673
09:45:58.882	0.071981
09:45:59.182	0.059354
09:45:59.483	0.062935
09:45:59.882	0.061354
09:46:00.182	0.077830
09:46:00.582	0.078143
09:46:00.882	0.074573
09:46:01.282	0.080938
09:46:01.582	0.094933
09:46:01.982	0.089268
09:46:02.282	0.084412
09:46:02.582	0.070190
09:46:02.982	0.073304
09:46:03.281	0.073808
09:46:03.682	0.067969
09:46:03.982	0.066231
09:46:04.382	0.071670
09:46:04.682	0.096056
09:46:05.082	0.083527
09:46:05.382	0.072329
09:46:05.782	0.066671
09:46:06.082	0.040443
09:46:06.482	0.036373
09:46:06.783	0.108695
09:46:07.182	0.072288
09:46:07.481	0.078445
09:46:07.782	0.093219
09:46:08.181	0.081546
09:46:08.482	0.098015
09:46:08.782	0.074215
09:46:09.182	0.080762
09:46:09.482	0.056755
09:46:09.782	0.047049
09:46:10.182	0.062265
09:46:10.482	0.067963
09:46:10.882	0.060017
09:46:11.182	0.062081
09:46:11.582	0.072745
09:46:11.882	0.078498
09:46:12.282	0.084443
09:46:12.582	0.077539
09:46:12.882	0.103896
09:46:13.282	0.066410
09:46:13.582	0.066052
09:46:13.982	0.070548
09:46:14.282	0.087746
09:46:14.682	0.085432
09:46:14.982	0.069957
09:46:15.382	0.061927
09:46:15.682	0.058563
09:46:16.082	0.059186
09:46:16.382	0.077924
09:46:16.682	0.070582
09:46:17.081	0.081228
09:46:17.383	0.076462
09:46:17.782	0.085447
09:46:18.082	0.083464
09:46:18.482	0.074060
09:46:18.782	0.083129
09:46:19.182	0.091892
09:46:19.482	0.094991
09:46:19.882	0.080633
09:46:20.182	0.079397
09:46:20.482	0.080533
09:46:20.882	0.077445
09:46:21.182	0.075264
09:46:21.482	0.068421
09:46:21.882	0.082121
09:46:22.182	0.081633
09:46:22.482	0.061107
09:46:22.882	0.083734
09:46:23.182	0.086860
09:46:23.482	0.075393
09:46:23.882	0.062740
09:46:24.182	0.059211
09:46:24.482	0.069022
09:46:24.882	0.067227
09:46:25.182	0.067813
09:46:25.582	0.071702
09:46:25.882	0.067971
09:46:26.282	0.080815
09:46:26.582	0.076924
09:46:26.882	0.066382
09:46:27.282	0.064663
09:46:27.582	0.069627
09:46:27.982	0.059483
09:46:28.282	0.064760
09:46:28.582	0.078363
09:46:28.983	0.066697
09:46:29.282	0.063711
09:46:29.582	0.065198
09:46:29.982	0.081193
09:46:30.282	0.081347
09:46:30.582	0.078349
09:46:30.982	0.099796
09:46:31.282	0.081092
09:46:31.682	0.072663
09:46:31.982	0.068162
09:46:32.382	0.067593
09:46:32.682	0.063447
09:46:33.082	0.082813
09:46:33.382	0.054737
09:46:33.782	0.063428
09:46:34.082	0.065913
09:46:34.482	0.060759
09:46:34.782	0.083525
09:46:35.182	0.082076
09:46:35.482	0.069288
09:46:35.782	0.065670
09:46:36.182	0.063345
09:46:36.482	0.068279
09:46:36.782	0.058391
09:46:37.182	0.070104
09:46:37.482	0.068581
09:46:37.782	0.064592
09:46:38.183	0.064407
09:46:38.482	0.060382
09:46:38.782	0.062020
09:46:39.183	0.063163
09:46:39.482	0.060595
09:46:39.882	0.086100
09:46:40.182	0.083938
09:46:40.582	0.067476
09:46:40.882	0.080572
09:46:41.282	0.077129
09:46:41.582	0.068602
09:46:41.882	0.070331
09:46:42.282	0.060994
09:46:42.582	0.066834
09:46:42.882	0.070786
09:46:43.283	0.065847
09:46:43.582	0.054114
09:46:43.882	0.064801
09:46:44.282	0.056424
09:46:44.582	0.057777
09:46:44.882	0.059440
09:46:45.282	0.067423
09:46:45.582	0.060920
09:46:45.982	0.059346
09:46:46.282	0.054171
09:46:46.682	0.055632
09:46:46.982	0.053666
09:46:47.382	0.063942
09:46:47.682	0.061598
09:46:47.982	0.053013
09:46:48.382	0.061907
09:46:48.682	0.063408
09:46:49.082	0.073834
09:46:49.382	0.062666
09:46:49.683	0.062334
09:46:50.082	0.085099
09:46:50.382	0.080019
09:46:50.683	0.104203
09:46:51.083	0.080795
09:46:51.382	0.058034
09:46:51.682	0.051205
09:46:52.082	0.067205
09:46:52.382	0.050405
09:46:52.682	0.072931
09:46:53.082	0.093081
09:46:53.382	0.090794
09:46:53.682	0.066975
09:46:54.083	0.059148
09:46:54.383	0.057227
09:46:54.783	0.064368
09:46:55.082	0.050320
09:46:55.482	0.065944
09:46:55.782	0.072909
09:46:56.182	0.057991
09:46:56.482	0.057681
09:46:56.883	0.050056
09:46:57.183	0.070442
09:46:57.582	0.058558
09:46:57.883	0.058849
09:46:58.283	0.058138
09:46:58.582	0.061720
09:46:58.882	0.055626
09:46:59.282	0.062584
09:46:59.583	0.077369
09:46:59.983	0.075969
09:47:00.283	0.071389
09:47:00.682	0.059467
09:47:00.983	0.065536
09:47:01.382	0.055168
09:47:01.683	0.055870
09:47:02.082	0.058418
09:47:02.382	0.067481
09:47:02.783	0.053024
09:47:03.083	0.061257
09:47:03.483	0.064041
09:47:03.782	0.067129
09:47:04.082	0.068105
09:47:04.482	0.085147
09:47:04.783	0.077384
09:47:05.183	0.065636
09:47:05.482	0.059123
09:47:05.783	0.055511
09:47:06.183	0.056351
09:47:06.582	0.056154
09:47:06.883	0.047937
09:47:07.283	0.075411
09:47:07.582	0.070849
09:47:07.882	0.063033
09:47:08.282	0.051413
09:47:08.582	0.048230
09:47:08.982	0.051671
09:47:09.283	0.058211
09:47:09.683	0.066960
09:47:09.982	0.058526
09:47:10.383	0.058124
09:47:10.683	0.063096
09:47:11.082	0.079226
09:47:11.382	0.089093
09:47:11.683	0.066468
09:47:12.082	0.056041
09:47:12.382	0.073445
09:47:12.782	0.085666
09:47:13.082	0.070690
09:47:13.382	0.077753
09:47:13.782	0.065853
09:47:14.082	0.066042
09:47:14.483	0.045439
09:47:14.782	0.066791
09:47:15.083	0.051108
09:47:15.483	0.043515
09:47:15.782	0.051945
09:47:16.183	0.068194
09:47:16.482	0.068862
09:47:16.782	0.044316
09:47:17.183	0.060841
09:47:17.482	0.060607
09:47:17.782	0.053174
09:47:18.184	0.041661
09:47:18.483	0.042512
09:47:18.883	0.042938
09:47:19.183	0.049103
09:47:19.583	0.061688
09:47:19.882	0.053195
09:47:20.184	0.044278
09:47:20.583	0.046848
09:47:20.883	0.039534
09:47:21.282	0.045090
09:47:21.583	0.048411
09:47:21.882	0.045604
09:47:22.283	0.054315
09:47:22.582	0.055884
09:47:22.982	0.052475
09:47:23.283	0.039409
09:47:23.582	0.041237
09:47:23.983	0.040820
09:47:24.283	0.053905
09:47:24.683	0.058387
09:47:24.984	0.057857
09:47:25.282	0.059235
09:47:25.683	0.058901
09:47:25.982	0.055930
09:47:26.382	0.051252
09:47:26.682	0.053635
09:47:26.983	0.054368
09:47:27.383	0.060183
09:47:27.683	0.064499
09:47:28.083	0.047704
09:47:28.383	0.043519
09:47:28.783	0.048097
09:47:29.082	0.047127
09:47:29.383	0.044803
09:47:29.783	0.044680
09:47:30.082	0.042184
09:47:30.482	0.054929
09:47:30.782	0.053236
09:47:31.083	0.059485
09:47:31.483	0.060807
09:47:31.782	0.056290
09:47:32.182	0.051282
09:47:32.483	0.053889
09:47:32.883	0.073251
09:47:33.183	0.071480
09:47:33.583	0.066010
09:47:33.883	0.059670
09:47:34.183	0.043173
09:47:34.582	0.051319
09:47:34.883	0.070288
09:47:35.182	0.056924
09:47:35.582	0.057628
09:47:35.883	0.049836
09:47:36.183	0.046835
09:47:36.583	0.051778
09:47:36.882	0.051424
09:47:37.283	0.045885
09:47:37.583	0.045967
09:47:37.982	0.043791
09:47:38.283	0.048652
09:47:38.682	0.056952
09:47:38.983	0.057140
09:47:39.283	0.056492
09:47:39.683	0.058688
09:47:39.983	0.056427
09:47:40.283	0.064432
09:47:40.683	0.057770
09:47:40.982	0.062892
09:47:41.283	0.061038
09:47:41.682	0.054271
09:47:41.983	0.040935
09:47:42.382	0.055702
09:47:42.683	0.052148
09:47:43.083	0.055711
09:47:43.383	0.059684
09:47:43.782	0.052904
09:47:44.083	0.052267
09:47:44.383	0.049821
09:47:44.783	0.043468
09:47:45.082	0.047839
09:47:45.483	0.050204
09:47:45.783	0.051223
09:47:46.083	0.056457
09:47:46.482	0.066888
09:47:46.783	0.057754
09:47:47.082	0.062332
09:47:47.483	0.058807
09:47:47.783	0.067559
09:47:48.082	0.055266
09:47:48.483	0.054937
09:47:48.782	0.064148
09:47:49.083	0.060001
09:47:49.482	0.047714
09:47:49.782	0.047916
09:47:50.082	0.069332
09:47:50.482	0.062777
09:47:50.782	0.057605
09:47:51.182	0.062390
09:47:51.483	0.080740
09:47:51.883	0.080569
09:47:52.183	0.079301
09:47:52.582	0.081451
09:47:52.883	0.072191
09:47:53.283	0.080221
09:47:53.583	0.081899
09:47:53.982	0.082187
09:47:54.283	0.076338
09:47:54.683	0.062130
09:47:54.982	0.060529
09:47:55.283	0.069318
09:47:55.682	0.065014
09:47:55.983	0.089907
09:47:56.383	0.078462
09:47:56.683	0.081386
09:47:57.084	0.079179
09:47:57.382	0.070557