Chart Recorder Data File Thu, Sep 12, 2024 3:00 PM
Time (s)	CH1 (V)  
14:55:50.198	-0.055637
14:55:51.098	-0.056636
14:55:51.398	-0.055870
14:55:51.797	-0.055068
14:55:52.098	-0.055889
14:55:52.398	-0.054729
14:55:52.798	-0.056174
14:55:53.097	-0.053736
14:55:53.397	-0.056277
14:55:53.798	-0.054941
14:55:54.097	-0.054357
14:55:54.498	-0.054505
14:55:54.897	-0.054844
14:55:55.198	-0.055342
14:55:55.498	-0.053378
14:55:55.899	-0.054977
14:55:56.198	-0.055033
14:55:56.498	-0.053106
14:55:56.898	-0.051205
14:55:57.198	-0.053875
14:55:57.598	-0.053529
14:55:57.898	-0.052209
14:55:58.298	-0.051353
14:55:58.598	-0.053481
14:55:58.998	-0.051721
14:55:59.298	-0.054681
14:55:59.597	-0.053752
14:55:59.998	-0.054441
14:56:00.298	-0.052703
14:56:00.598	-0.053720
14:56:00.998	-0.052216
14:56:01.298	-0.052216
14:56:01.698	-0.052648
14:56:01.997	-0.053011
14:56:02.298	-0.051702
14:56:02.697	-0.051108
14:56:02.998	-0.053469
14:56:03.298	-0.052590
14:56:03.698	-0.054012
14:56:03.998	-0.053304
14:56:04.298	-0.052344
14:56:04.698	-0.051027
14:56:04.998	-0.054600
14:56:05.398	-0.053425
14:56:05.698	-0.051574
14:56:05.998	-0.052857
14:56:06.398	-0.051519
14:56:06.698	-0.053042
14:56:07.098	-0.050629
14:56:07.398	-0.049953
14:56:07.698	-0.050617
14:56:08.098	-0.051637
14:56:08.397	-0.052313
14:56:08.799	-0.051481
14:56:09.098	-0.052148
14:56:09.397	-0.050562
14:56:09.798	-0.050598
14:56:10.098	-0.051719
14:56:10.498	-0.050513
14:56:10.798	-0.051526
14:56:11.097	-0.052380
14:56:11.497	-0.050995
14:56:11.798	-0.053287
14:56:12.198	-0.050785
14:56:12.498	-0.051867
14:56:12.898	-0.051728
14:56:13.197	-0.050045
14:56:13.499	-0.049647
14:56:13.898	-0.049157
14:56:14.198	-0.048827
14:56:14.498	-0.048500
14:56:14.898	-0.047951
14:56:15.198	-0.049181
14:56:15.598	-0.049938
14:56:15.897	-0.048396
14:56:16.298	-0.045264
14:56:16.598	-0.046255
14:56:16.897	-0.048619
14:56:17.297	-0.048398
14:56:17.598	-0.047480
14:56:17.998	-0.048131
14:56:18.298	-0.047034
14:56:18.598	-0.047370
14:56:18.998	-0.045987
14:56:19.298	-0.047635
14:56:19.698	-0.045462
14:56:19.998	-0.045007
14:56:20.298	-0.047868
14:56:20.697	-0.046472
14:56:20.998	-0.042866
14:56:21.398	-0.044124
14:56:21.698	-0.044202
14:56:21.998	-0.043117
14:56:22.398	-0.044702
14:56:22.698	-0.041800
14:56:23.098	-0.042968
14:56:23.398	-0.039263
14:56:23.698	-0.040143
14:56:24.098	-0.039148
14:56:24.398	-0.027701
14:56:24.698	-0.026920
14:56:25.098	-0.011184
14:56:25.397	0.037024
14:56:25.798	0.144910
14:56:26.098	0.204042
14:56:26.498	0.255133
14:56:26.798	0.193783
14:56:27.198	0.108364
14:56:27.498	0.069240
14:56:27.798	0.012343
14:56:28.198	-0.025062
14:56:28.498	-0.043356
14:56:28.798	-0.050269
14:56:29.198	-0.054189
14:56:29.498	-0.056113
14:56:29.799	-0.058258
14:56:30.198	-0.058627
14:56:30.498	-0.060814
14:56:30.798	-0.060343
14:56:31.198	-0.059905
14:56:31.498	-0.061071
14:56:31.798	-0.061788
14:56:32.198	-0.062898
14:56:32.498	-0.060985
14:56:32.898	-0.063153
14:56:33.198	-0.061614
14:56:33.597	-0.063209
14:56:33.898	-0.063597
14:56:34.198	-0.062575
14:56:34.598	-0.062311
14:56:34.898	-0.062203
14:56:35.198	-0.061223
14:56:35.598	-0.063038
14:56:35.898	-0.063717
14:56:36.298	-0.062182
14:56:36.599	-0.064843
14:56:36.998	-0.062486
14:56:37.298	-0.062953
14:56:37.598	-0.062810
14:56:37.998	-0.062155
14:56:38.298	-0.064213
14:56:38.598	-0.063209
14:56:38.998	-0.062821
14:56:39.298	-0.060899
14:56:39.698	-0.062385
14:56:39.998	-0.062677
14:56:40.398	-0.062887
14:56:40.698	-0.063023
14:56:41.098	-0.063318
14:56:41.399	-0.062671
14:56:41.699	-0.063563
14:56:42.098	-0.061258
14:56:42.398	-0.061611
14:56:42.698	-0.063151
14:56:43.098	-0.064222
14:56:43.398	-0.063746
14:56:43.799	-0.062145
14:56:44.098	-0.062409
14:56:44.498	-0.063315
14:56:44.798	-0.063540
14:56:45.198	-0.062595
14:56:45.498	-0.062241
14:56:45.798	-0.062983
14:56:46.198	-0.064360
14:56:46.498	-0.063417
14:56:46.898	-0.063138
14:56:47.198	-0.064201
14:56:47.598	-0.062992
14:56:47.898	-0.062209
14:56:48.198	-0.062064
14:56:48.598	-0.063737
14:56:48.898	-0.062408
14:56:49.298	-0.064889
14:56:49.598	-0.063269
14:56:49.898	-0.061576
14:56:50.298	-0.061045
14:56:50.598	-0.061653
14:56:50.899	-0.063314
14:56:51.298	-0.062547
14:56:51.598	-0.063229
14:56:51.898	-0.063326
14:56:52.298	-0.063617
14:56:52.598	-0.061544
14:56:52.898	-0.061296
14:56:53.299	-0.063283
14:56:53.598	-0.062612
14:56:53.998	-0.062419
14:56:54.298	-0.063045
14:56:54.598	-0.063094
14:56:54.998	-0.061869
14:56:55.298	-0.062709
14:56:55.598	-0.061599
14:56:55.998	-0.063584
14:56:56.298	-0.062100
14:56:56.598	-0.063996
14:56:56.998	-0.062374
14:56:57.299	-0.063878
14:56:57.698	-0.062391
14:56:57.998	-0.062333
14:56:58.298	-0.062930
14:56:58.698	-0.062827
14:56:58.998	-0.062462
14:56:59.398	-0.063318
14:56:59.699	-0.062386
14:56:59.998	-0.061813
14:57:00.398	-0.062837
14:57:00.698	-0.062188
14:57:01.098	-0.062885
14:57:01.398	-0.061961
14:57:01.698	-0.064902
14:57:02.098	-0.060559
14:57:02.398	-0.061468
14:57:02.798	-0.061449
14:57:03.098	-0.061620
14:57:03.398	-0.061840
14:57:03.798	-0.062019
14:57:04.098	-0.062727
14:57:04.498	-0.062566
14:57:04.798	-0.060946
14:57:05.099	-0.064102
14:57:05.498	-0.062827
14:57:05.798	-0.062314
14:57:06.198	-0.062848
14:57:06.498	-0.062046
14:57:06.898	-0.063446
14:57:07.199	-0.061797
14:57:07.498	-0.061854
14:57:07.898	-0.062502
14:57:08.198	-0.061919
14:57:08.598	-0.062863
14:57:08.898	-0.062023
14:57:09.198	-0.063995
14:57:09.599	-0.062375
14:57:09.898	-0.063445
14:57:10.298	-0.063089
14:57:10.598	-0.063268
14:57:10.898	-0.062336
14:57:11.298	-0.061495
14:57:11.598	-0.061637
14:57:11.998	-0.060401
14:57:12.298	-0.060929
14:57:12.598	-0.063903
14:57:12.999	-0.062184
14:57:13.298	-0.062291
14:57:13.698	-0.062479
14:57:13.998	-0.062785
14:57:14.298	-0.061906
14:57:14.698	-0.063125
14:57:14.998	-0.063242
14:57:15.398	-0.062323
14:57:15.698	-0.061701
14:57:16.098	-0.061656
14:57:16.398	-0.063085
14:57:16.698	-0.061133
14:57:17.098	-0.060966
14:57:17.399	-0.061393
14:57:17.699	-0.060823
14:57:18.099	-0.061923
14:57:18.398	-0.062335
14:57:18.798	-0.061476
14:57:19.098	-0.059944
14:57:19.498	-0.062120
14:57:19.798	-0.060233
14:57:20.099	-0.061278
14:57:20.498	-0.060422
14:57:20.798	-0.062739
14:57:21.099	-0.062095
14:57:21.499	-0.061658
14:57:21.799	-0.061639
14:57:22.198	-0.060840
14:57:22.498	-0.060516
14:57:22.798	-0.061611
14:57:23.199	-0.061165
14:57:23.498	-0.059261
14:57:23.799	-0.061404
14:57:24.199	-0.060537
14:57:24.498	-0.061043
14:57:24.798	-0.060229
14:57:25.198	-0.058184
14:57:25.499	-0.059924
14:57:25.899	-0.060634
14:57:26.199	-0.059704
14:57:26.598	-0.059055
14:57:26.898	-0.058730
14:57:27.198	-0.060082
14:57:27.599	-0.059458
14:57:27.899	-0.057488
14:57:28.298	-0.058218
14:57:28.598	-0.059317
14:57:28.899	-0.058549
14:57:29.298	-0.057950
14:57:29.598	-0.057824
14:57:29.998	-0.050095
14:57:30.299	-0.024035
14:57:30.599	0.044680
14:57:30.998	0.880779
14:57:31.299	0.000000
14:57:35.398	-0.059407
14:57:35.699	-0.058927
14:57:35.998	-0.059599
14:57:36.398	-0.059854
14:57:36.698	-0.059766
14:57:36.999	-0.059530
14:57:37.399	-0.060368
14:57:37.698	-0.060640
14:57:37.999	-0.059330
14:57:38.398	-0.060451
14:57:38.698	-0.058653
14:57:38.999	-0.062140
14:57:39.398	-0.060608
14:57:39.698	-0.060023
14:57:40.099	-0.060218
14:57:40.398	-0.059816
14:57:40.798	-0.059749
14:57:41.098	-0.060567
14:57:41.498	-0.059102
14:57:41.799	-0.060404
14:57:42.098	-0.060536
14:57:42.499	-0.061250
14:57:42.798	-0.059892
14:57:43.199	-0.060773
14:57:43.499	-0.060925
14:57:43.899	-0.061542
14:57:44.198	-0.060738
14:57:44.599	-0.059653
14:57:44.898	-0.058596
14:57:45.298	-0.060715
14:57:45.598	-0.058975
14:57:45.898	-0.062060
14:57:46.299	-0.061426
14:57:46.598	-0.062392
14:57:46.898	-0.060813
14:57:47.298	-0.060725
14:57:47.598	-0.059725
14:57:47.899	-0.060337
14:57:48.299	-0.059814
14:57:48.598	-0.060672
14:57:48.998	-0.059686
14:57:49.299	-0.060516
14:57:49.698	-0.061215
14:57:49.998	-0.059919
14:57:50.398	-0.059379
14:57:50.698	-0.059435
14:57:50.999	-0.058917
14:57:51.399	-0.059905
14:57:51.699	-0.058812
14:57:51.999	-0.055759
14:57:52.398	-0.053410
14:57:52.698	-0.049422
14:57:52.999	-0.038072
14:57:53.398	-0.027048
14:57:53.698	-0.025199
14:57:54.099	-0.026150
14:57:54.498	-0.034271
14:57:54.799	-0.036492
14:57:55.198	-0.038618
14:57:55.498	-0.039230
14:57:55.898	-0.043117
14:57:56.198	-0.039577
14:57:56.599	-0.034711
14:57:56.899	-0.033138
14:57:57.199	-0.019434
14:57:57.599	0.000391
14:57:57.898	0.015928
14:57:58.199	0.047079
14:57:58.599	0.057082
14:57:58.898	0.049478
14:57:59.199	0.047949
14:57:59.598	0.043062
14:57:59.899	0.035754
14:58:00.198	0.031784
14:58:00.599	0.040924
14:58:00.899	0.051507
14:58:01.200	0.074298
14:58:01.599	0.206575
14:58:01.898	0.673861
14:58:02.199	1.110680
14:58:02.599	0.000000
14:58:06.699	0.228225
14:58:06.998	0.262825
14:58:07.299	0.211703
14:58:07.698	0.143752
14:58:07.999	0.113933
14:58:08.299	0.063799
14:58:08.698	0.037876
14:58:08.999	0.030255
14:58:09.298	0.022278
14:58:09.699	0.018916
14:58:09.998	0.016608
14:58:10.299	0.019120
14:58:10.699	0.022553
14:58:10.999	0.016538
14:58:11.299	0.014179
14:58:11.699	0.016278
14:58:11.998	0.016441
14:58:12.299	0.014425
14:58:12.698	0.015257
14:58:12.998	0.017011
14:58:13.298	0.016100
14:58:13.699	0.021202
14:58:13.999	0.019460
14:58:14.299	0.015173
14:58:14.698	0.015807
14:58:14.999	0.017973
14:58:15.298	0.019248
14:58:15.699	0.013901
14:58:15.998	0.013176
14:58:16.299	0.015403
14:58:16.699	0.017780
14:58:16.998	0.015544
14:58:17.298	0.014435
14:58:17.699	0.014860
14:58:17.999	0.018735
14:58:18.398	0.012467
14:58:18.698	0.012160
14:58:19.098	0.011885
14:58:19.399	0.010846
14:58:19.699	0.010094
14:58:20.099	0.010345
14:58:20.398	0.005422
14:58:20.799	0.010475
14:58:21.099	0.010292
14:58:21.399	0.008169
14:58:21.799	0.008906
14:58:22.099	0.018501
14:58:22.398	0.014370
14:58:22.798	0.006904
14:58:23.098	0.012932
14:58:23.398	0.016656
14:58:23.799	0.011372
14:58:24.098	0.011029
14:58:24.398	0.012114
14:58:24.799	0.018388
14:58:25.099	0.014048
14:58:25.399	0.017382
14:58:25.799	0.020122
14:58:26.099	0.024870
14:58:26.499	0.019401
14:58:26.799	0.024863
14:58:27.198	0.024096
14:58:27.499	0.024715
14:58:27.899	0.021843
14:58:28.198	0.026839
14:58:28.499	0.019029
14:58:28.898	0.027205
14:58:29.198	0.028995
14:58:29.498	0.030931
14:58:29.899	0.030933
14:58:30.198	0.037045
14:58:30.499	0.044336
14:58:30.899	0.049470
14:58:31.199	0.050178
14:58:31.499	0.054544
14:58:31.899	0.068679
14:58:32.198	0.082972
14:58:32.499	0.093506
14:58:32.899	0.115684
14:58:33.198	0.144971
14:58:33.599	0.169530
14:58:33.899	0.193117
14:58:34.199	0.222075
14:58:34.599	0.273750
14:58:34.898	0.294402
14:58:35.198	0.299662
14:58:35.598	0.238421
14:58:35.899	0.192735
14:58:36.299	0.114422
14:58:36.599	0.078271
14:58:36.899	0.054892
14:58:37.299	0.053077
14:58:37.599	0.061111
14:58:37.999	0.094563
14:58:38.299	0.178948
14:58:38.599	0.247805
14:58:38.999	0.461259
14:58:39.299	0.822371
14:58:39.698	1.444644
14:58:39.999	1.750175
14:58:40.298	1.920813
14:58:40.699	1.402288
14:58:40.999	1.102018
14:58:41.298	0.690807
14:58:41.699	0.406682
14:58:41.998	0.300138
14:58:42.299	0.158023
14:58:42.699	0.094583
14:58:43.000	0.081918
14:58:43.299	0.063818
14:58:43.699	0.043989
14:58:43.999	0.040535
14:58:44.299	0.042652
14:58:44.698	0.035073
14:58:44.999	0.028880
14:58:45.298	0.026476
14:58:45.699	0.020112
14:58:45.999	0.023564
14:58:46.398	0.023534
14:58:46.700	0.023551
14:58:47.098	0.022048
14:58:47.399	0.019538
14:58:47.699	0.020165
14:58:48.098	0.020601
14:58:48.399	0.022115
14:58:48.699	0.021269
14:58:49.099	0.014308
14:58:49.399	0.013888
14:58:49.799	0.010585
14:58:50.099	0.010725
14:58:50.399	0.013407
14:58:50.799	0.008495
14:58:51.099	0.009491
14:58:51.399	0.009949
14:58:51.799	0.011102
14:58:52.099	0.014213
14:58:52.399	0.014189
14:58:52.799	0.010440
14:58:53.099	0.007096
14:58:53.399	0.007627
14:58:53.799	0.011588
14:58:54.099	0.002790
14:58:54.498	0.006852
14:58:54.799	0.004037
14:58:55.099	0.008106
14:58:55.499	0.013450
14:58:55.799	0.012404
14:58:56.098	0.009489
14:58:56.499	0.005849
14:58:56.799	0.007722
14:58:57.199	0.013347
14:58:57.499	0.008642
14:58:57.799	0.009858
14:58:58.199	0.008515
14:58:58.498	0.008442
14:58:58.799	0.008269
14:58:59.198	0.005964
14:58:59.498	0.007427
14:58:59.899	0.008849
14:59:00.198	0.009869
14:59:00.498	0.009899
14:59:00.898	0.010609
14:59:01.198	0.006203
14:59:01.499	0.007181
14:59:01.899	0.014172
14:59:02.199	0.008692
14:59:02.499	0.012742
14:59:02.899	0.011369
14:59:03.199	0.011306
14:59:03.499	0.007995
14:59:03.899	0.011139
14:59:04.199	0.012412
14:59:04.499	0.011824
14:59:04.899	0.009531
14:59:05.199	0.006328
14:59:05.499	0.010487
14:59:05.899	0.010529
14:59:06.199	0.011742
14:59:06.499	0.013424
14:59:06.898	0.011868
14:59:07.199	0.009300
14:59:07.499	0.008260
14:59:07.899	0.011839
14:59:08.199	0.012393
14:59:08.499	0.011732
14:59:08.899	0.011269