Chart Recorder Data File Fri, Sep 13, 2024 9:17 AM
Time (s)	CH1 (V)  
09:13:25.288	-0.069892
09:13:26.088	-0.069873
09:13:26.388	-0.069945
09:13:26.788	-0.069917
09:13:27.088	-0.069852
09:13:27.488	-0.069921
09:13:27.888	-0.069878
09:13:28.187	-0.069910
09:13:28.488	-0.069889
09:13:28.888	-0.069876
09:13:29.188	-0.069891
09:13:29.588	-0.069886
09:13:29.888	-0.069815
09:13:30.288	-0.069851
09:13:30.588	-0.069844
09:13:30.988	-0.069865
09:13:31.289	-0.069861
09:13:31.688	-0.069872
09:13:31.989	-0.069868
09:13:32.388	-0.069867
09:13:32.688	-0.069872
09:13:33.088	-0.069859
09:13:33.388	-0.069856
09:13:33.788	-0.069861
09:13:34.088	-0.069862
09:13:34.488	-0.069869
09:13:34.788	-0.069853
09:13:35.188	-0.069835
09:13:35.488	-0.069860
09:13:35.888	-0.069846
09:13:36.188	-0.069837
09:13:36.488	-0.069832
09:13:36.888	-0.069858
09:13:37.188	-0.069839
09:13:37.488	-0.069827
09:13:37.888	-0.069832
09:13:38.188	-0.069807
09:13:38.588	-0.069809
09:13:38.888	-0.069834
09:13:39.288	-0.069844
09:13:39.588	-0.069854
09:13:39.888	-0.069835
09:13:40.288	-0.069826
09:13:40.588	-0.069836
09:13:40.988	-0.069821
09:13:41.288	-0.069849
09:13:41.688	-0.069813
09:13:41.988	-0.069808
09:13:42.388	-0.069850
09:13:42.688	-0.069813
09:13:43.088	-0.069829
09:13:43.388	-0.069839
09:13:43.788	-0.069825
09:13:44.088	-0.069821
09:13:44.488	-0.069818
09:13:44.788	-0.069826
09:13:45.188	-0.069821
09:13:45.488	-0.069815
09:13:45.888	-0.069826
09:13:46.188	-0.069816
09:13:46.488	-0.069817
09:13:46.888	-0.069813
09:13:47.188	-0.069807
09:13:47.588	-0.069791
09:13:47.888	-0.069791
09:13:48.288	-0.069806
09:13:48.588	-0.069775
09:13:48.988	-0.069782
09:13:49.288	-0.069794
09:13:49.688	-0.069803
09:13:49.988	-0.069819
09:13:50.388	-0.069803
09:13:50.688	-0.069742
09:13:51.088	-0.069781
09:13:51.388	-0.069785
09:13:51.688	-0.069789
09:13:52.088	-0.069770
09:13:52.388	-0.069812
09:13:52.788	-0.069801
09:13:53.088	-0.069788
09:13:53.488	-0.069773
09:13:53.788	-0.069770
09:13:54.188	-0.069778
09:13:54.488	-0.069736
09:13:54.888	-0.069764
09:13:55.188	-0.069743
09:13:55.488	-0.069768
09:13:55.888	-0.069769
09:13:56.188	-0.069770
09:13:56.588	-0.069766
09:13:56.888	-0.069760
09:13:57.288	-0.069757
09:13:57.588	-0.069764
09:13:57.888	-0.069753
09:13:58.288	-0.069787
09:13:58.588	-0.069769
09:13:58.988	-0.069762
09:13:59.288	-0.069789
09:13:59.588	-0.069764
09:13:59.988	-0.069749
09:14:00.288	-0.069756
09:14:00.688	-0.069758
09:14:00.988	-0.069771
09:14:01.388	-0.069793
09:14:01.688	-0.069771
09:14:02.088	-0.069790
09:14:02.388	-0.069751
09:14:02.688	-0.069743
09:14:03.088	-0.069807
09:14:03.388	-0.069800
09:14:03.688	-0.069806
09:14:04.088	-0.069816
09:14:04.388	-0.069775
09:14:04.688	-0.069798
09:14:05.089	-0.069820
09:14:05.388	-0.069797
09:14:05.788	-0.069825
09:14:06.088	-0.069820
09:14:06.488	-0.069813
09:14:06.788	-0.069805
09:14:07.188	-0.069784
09:14:07.489	-0.069822
09:14:07.888	-0.069835
09:14:08.188	-0.069818
09:14:08.588	-0.069837
09:14:08.888	-0.069858
09:14:09.288	-0.069846
09:14:09.588	-0.069838
09:14:09.988	-0.069809
09:14:10.288	-0.069844
09:14:10.689	-0.069797
09:14:10.988	-0.069811
09:14:11.388	-0.069848
09:14:11.688	-0.069839
09:14:12.088	-0.069825
09:14:12.388	-0.069838
09:14:12.789	-0.069797
09:14:13.089	-0.069814
09:14:13.488	-0.069822
09:14:13.788	-0.069829
09:14:14.188	-0.069821
09:14:14.488	-0.069837
09:14:14.789	-0.069820
09:14:15.188	-0.069805
09:14:15.489	-0.069815
09:14:15.788	-0.069788
09:14:16.188	-0.069806
09:14:16.488	-0.069816
09:14:16.888	-0.069816
09:14:17.188	-0.069814
09:14:17.588	-0.069786
09:14:17.889	-0.069770
09:14:18.288	-0.069770
09:14:18.589	-0.069772
09:14:18.888	-0.069781
09:14:19.288	-0.069799
09:14:19.588	-0.069787
09:14:19.988	-0.069787
09:14:20.288	-0.069783
09:14:20.688	-0.069787
09:14:20.988	-0.069777
09:14:21.389	-0.069780
09:14:21.689	-0.069788
09:14:21.988	-0.069788
09:14:22.388	-0.069771
09:14:22.688	-0.069777
09:14:23.089	-0.069750
09:14:23.388	-0.069758
09:14:23.788	-0.069760
09:14:24.088	-0.069752
09:14:24.488	-0.069768
09:14:24.789	-0.069747
09:14:25.189	-0.069744
09:14:25.488	-0.069748
09:14:25.788	-0.069756
09:14:26.188	-0.069730
09:14:26.488	-0.069750
09:14:26.889	-0.069746
09:14:27.188	-0.069751
09:14:27.588	-0.069738
09:14:27.888	-0.069740
09:14:28.288	-0.069728
09:14:28.588	-0.069741
09:14:28.988	-0.069688
09:14:29.288	-0.069720
09:14:29.688	-0.069694
09:14:29.988	-0.069688
09:14:30.388	-0.069682
09:14:30.688	-0.069684
09:14:31.088	-0.069667
09:14:31.388	-0.069625
09:14:31.788	-0.069677
09:14:32.189	-0.069673
09:14:32.488	-0.069699
09:14:32.788	-0.069676
09:14:33.189	-0.069657
09:14:33.489	-0.069692
09:14:33.888	-0.069665
09:14:34.188	-0.069669
09:14:34.588	-0.069643
09:14:34.888	-0.069626
09:14:35.289	-0.069644
09:14:35.589	-0.069723
09:14:35.988	-0.069688
09:14:36.289	-0.069643
09:14:36.688	-0.069633
09:14:36.988	-0.069646
09:14:37.389	-0.069655
09:14:37.689	-0.069667
09:14:38.089	-0.069675
09:14:38.388	-0.069649
09:14:38.789	-0.069641
09:14:39.088	-0.069632
09:14:39.489	-0.069650
09:14:39.788	-0.069608
09:14:40.088	-0.069631
09:14:40.488	-0.069631
09:14:40.788	-0.069640
09:14:41.188	-0.069628
09:14:41.488	-0.069661
09:14:41.788	-0.069620
09:14:42.188	-0.069624
09:14:42.488	-0.069627
09:14:42.888	-0.069583
09:14:43.188	-0.069563
09:14:43.588	-0.069566
09:14:43.889	-0.069507
09:14:44.288	-0.069505
09:14:44.588	-0.069490
09:14:44.988	-0.069489
09:14:45.289	-0.069463
09:14:45.589	-0.069434
09:14:45.988	-0.069402
09:14:46.389	-0.069459
09:14:46.688	-0.069447
09:14:46.989	-0.069440
09:14:47.388	-0.069404
09:14:47.688	-0.069398
09:14:47.989	-0.069401
09:14:48.388	-0.069365
09:14:48.688	-0.069405
09:14:48.988	-0.069294
09:14:49.389	-0.069323
09:14:49.688	-0.069283
09:14:50.088	-0.069251
09:14:50.389	-0.069244
09:14:50.788	-0.069266
09:14:51.088	-0.069290
09:14:51.489	-0.069306
09:14:51.789	-0.069312
09:14:52.188	-0.069298
09:14:52.489	-0.069244
09:14:52.889	-0.069201
09:14:53.189	-0.069245
09:14:53.588	-0.069256
09:14:53.889	-0.069258
09:14:54.188	-0.069167
09:14:54.588	-0.069185
09:14:54.889	-0.069213
09:14:55.288	-0.069183
09:14:55.588	-0.069116
09:14:55.988	-0.069148
09:14:56.288	-0.069162
09:14:56.688	-0.069080
09:14:56.989	-0.069087
09:14:57.389	-0.069088
09:14:57.688	-0.069089
09:14:57.989	-0.069107
09:14:58.389	-0.069042
09:14:58.689	-0.068995
09:14:59.089	-0.068937
09:14:59.389	-0.068956
09:14:59.789	-0.069012
09:15:00.089	-0.068937
09:15:00.488	-0.068911
09:15:00.789	-0.068880
09:15:01.189	-0.068790
09:15:01.489	-0.068832
09:15:01.888	-0.068824
09:15:02.188	-0.068781
09:15:02.588	-0.068772
09:15:02.888	-0.068824
09:15:03.189	-0.068751
09:15:03.589	-0.068729
09:15:03.888	-0.068609
09:15:04.289	-0.068619
09:15:04.589	-0.068661
09:15:04.988	-0.068607
09:15:05.288	-0.068557
09:15:05.688	-0.068529
09:15:05.989	-0.068495
09:15:06.389	-0.068435
09:15:06.689	-0.068431
09:15:06.989	-0.068352
09:15:07.389	-0.068283
09:15:07.688	-0.068228
09:15:08.089	-0.068156
09:15:08.389	-0.068174
09:15:08.788	-0.068136
09:15:09.089	-0.067965
09:15:09.488	-0.067912
09:15:09.788	-0.067865
09:15:10.089	-0.067810
09:15:10.489	-0.067729
09:15:10.789	-0.067623
09:15:11.189	-0.067373
09:15:11.490	-0.067236
09:15:11.888	-0.067290
09:15:12.189	-0.067240
09:15:12.589	-0.067121
09:15:12.888	-0.067125
09:15:13.288	-0.067072
09:15:13.588	-0.067005
09:15:13.988	-0.066714
09:15:14.288	-0.066690
09:15:14.689	-0.066493
09:15:14.988	-0.066315
09:15:15.388	-0.066055
09:15:15.688	-0.066074
09:15:15.989	-0.065754
09:15:16.389	-0.065449
09:15:16.689	-0.065261
09:15:17.089	-0.064933
09:15:17.388	-0.064653
09:15:17.788	-0.064339
09:15:18.088	-0.064003
09:15:18.489	-0.063554
09:15:18.789	-0.062663
09:15:19.088	-0.062157
09:15:19.488	-0.060350
09:15:19.789	-0.055708
09:15:20.188	-0.028385
09:15:20.489	0.015677
09:15:20.889	0.116422
09:15:21.188	0.798672
09:15:21.589	2.761502
09:15:22.888	0.085856
09:15:24.188	-0.057132
09:15:24.490	-0.060480
09:15:24.888	-0.061466
09:15:25.189	-0.062219
09:15:25.589	-0.063090
09:15:25.889	-0.063876
09:15:26.289	-0.064196
09:15:26.589	-0.064407
09:15:26.989	-0.064723
09:15:27.289	-0.064826
09:15:27.689	-0.065037
09:15:27.989	-0.065097
09:15:28.389	-0.065206
09:15:28.689	-0.065156
09:15:29.089	-0.065160
09:15:29.389	-0.065102
09:15:29.788	-0.065411
09:15:30.089	-0.065601
09:15:30.389	-0.065658
09:15:30.789	-0.065655
09:15:31.088	-0.065704
09:15:31.489	-0.065600
09:15:31.789	-0.065475
09:15:32.189	-0.065126
09:15:32.489	-0.064216
09:15:32.888	-0.062915
09:15:33.188	-0.060972
09:15:33.589	-0.059341
09:15:33.889	-0.058792
09:15:34.288	-0.059151
09:15:34.588	-0.060750
09:15:34.988	-0.063067
09:15:35.289	-0.063968
09:15:35.689	-0.065406
09:15:35.989	-0.066143
09:15:36.388	-0.066380
09:15:36.689	-0.066582
09:15:37.088	-0.066699
09:15:37.389	-0.066760
09:15:37.789	-0.066926
09:15:38.089	-0.066971
09:15:38.489	-0.066950
09:15:38.789	-0.066971
09:15:39.189	-0.067088
09:15:39.489	-0.067054
09:15:39.889	-0.067094
09:15:40.189	-0.067082
09:15:40.589	-0.067006
09:15:40.889	-0.066986
09:15:41.288	-0.066837
09:15:41.588	-0.066709
09:15:41.989	-0.065900
09:15:42.289	-0.063367
09:15:42.689	-0.057226
09:15:42.989	-0.052289
09:15:43.389	-0.042345
09:15:43.789	-0.037134
09:15:44.089	-0.041678
09:15:44.489	-0.050481
09:15:44.789	-0.054690
09:15:45.189	-0.060565
09:15:45.489	-0.064067
09:15:45.889	-0.065987
09:15:46.189	-0.066522
09:15:46.488	-0.067177
09:15:46.889	-0.067529
09:15:47.189	-0.067538
09:15:47.589	-0.067345
09:15:47.889	-0.067184
09:15:48.289	-0.066768
09:15:48.588	-0.066499
09:15:48.989	-0.066817
09:15:49.289	-0.066976
09:15:49.689	-0.067189
09:15:49.990	-0.067365
09:15:50.389	-0.067560
09:15:50.690	-0.067635
09:15:51.088	-0.067653
09:15:51.389	-0.067374
09:15:51.789	-0.066228
09:15:52.089	-0.064625
09:15:52.488	-0.057567
09:15:52.789	-0.044057
09:15:53.189	-0.033898
09:15:53.489	-0.035806
09:15:53.889	-0.049127
09:15:54.189	-0.058867
09:15:54.589	-0.062848
09:15:54.889	-0.065745
09:15:55.289	-0.066957
09:15:55.589	-0.067139
09:15:55.989	-0.067161
09:15:56.289	-0.066971
09:15:56.689	-0.066285
09:15:56.989	-0.065892
09:15:57.389	-0.065512
09:15:57.689	-0.066196
09:15:58.089	-0.067060
09:15:58.389	-0.067442
09:15:58.789	-0.067965
09:15:59.089	-0.068174
09:15:59.489	-0.068412
09:15:59.789	-0.068476
09:16:00.189	-0.068542
09:16:00.489	-0.068534
09:16:00.889	-0.068526
09:16:01.189	-0.068529
09:16:01.589	-0.068556
09:16:01.889	-0.068612
09:16:02.288	-0.068630
09:16:02.589	-0.068616
09:16:02.989	-0.068622
09:16:03.289	-0.068625
09:16:03.689	-0.068709
09:16:03.989	-0.068654
09:16:04.389	-0.068574
09:16:04.789	-0.068616
09:16:05.088	-0.068648
09:16:05.489	-0.068609
09:16:05.789	-0.068624
09:16:06.189	-0.068693
09:16:06.489	-0.068699
09:16:06.888	-0.068690
09:16:07.189	-0.068713
09:16:07.588	-0.068699
09:16:07.889	-0.068689
09:16:08.289	-0.068719
09:16:08.589	-0.068778
09:16:08.989	-0.068768
09:16:09.289	-0.068742
09:16:09.689	-0.068802
09:16:09.989	-0.068778
09:16:10.389	-0.068881
09:16:10.688	-0.068855
09:16:11.089	-0.068881
09:16:11.389	-0.068865
09:16:11.789	-0.068874
09:16:12.089	-0.068868
09:16:12.488	-0.068865
09:16:12.789	-0.068858
09:16:13.189	-0.068867
09:16:13.489	-0.068820
09:16:13.889	-0.068859
09:16:14.189	-0.068890
09:16:14.589	-0.068857
09:16:14.889	-0.068836
09:16:15.289	-0.068797
09:16:15.589	-0.068805
09:16:15.989	-0.068843
09:16:16.288	-0.068842
09:16:16.689	-0.068731
09:16:16.989	-0.068759
09:16:17.389	-0.068727
09:16:17.688	-0.068743
09:16:18.089	-0.068769
09:16:18.389	-0.068770
09:16:18.789	-0.068800
09:16:19.088	-0.068791
09:16:19.489	-0.068761
09:16:19.789	-0.068790
09:16:20.189	-0.068696
09:16:20.489	-0.068703
09:16:20.889	-0.068666
09:16:21.189	-0.068611
09:16:21.589	-0.068463
09:16:21.889	-0.068444
09:16:22.289	-0.068362
09:16:22.589	-0.068151
09:16:22.989	-0.067913
09:16:23.289	-0.067645
09:16:23.689	-0.067482
09:16:23.989	-0.067170
09:16:24.389	-0.066770
09:16:24.689	-0.066302
09:16:25.089	-0.065865
09:16:25.389	-0.065788
09:16:25.789	-0.066063
09:16:26.089	-0.067103
09:16:26.489	-0.067865
09:16:26.789	-0.068134
09:16:27.189	-0.068363
09:16:27.489	-0.068511
09:16:27.889	-0.068388
09:16:28.189	-0.068229
09:16:28.589	-0.067612
09:16:28.889	-0.066348
09:16:29.289	-0.063729
09:16:29.589	-0.061917
09:16:29.988	-0.056778
09:16:30.290	-0.049401
09:16:30.589	-0.047329
09:16:30.989	-0.049180
09:16:31.289	-0.055708
09:16:31.689	-0.061043
09:16:31.989	-0.064266
09:16:32.389	-0.066380
09:16:32.689	-0.067110
09:16:33.089	-0.067972
09:16:33.389	-0.068317
09:16:33.789	-0.068489
09:16:34.089	-0.068619
09:16:34.489	-0.068696
09:16:34.789	-0.068698
09:16:35.189	-0.068753
09:16:35.489	-0.068788
09:16:35.889	-0.068853
09:16:36.189	-0.068866
09:16:36.589	-0.068883
09:16:36.889	-0.068877
09:16:37.289	-0.068857
09:16:37.589	-0.068896
09:16:37.989	-0.068883
09:16:38.289	-0.068913
09:16:38.689	-0.068946
09:16:38.989	-0.068966
09:16:39.389	-0.068970
09:16:39.689	-0.068968
09:16:40.089	-0.069032
09:16:40.389	-0.068988
09:16:40.789	-0.069069
09:16:41.089	-0.069065
09:16:41.489	-0.069006
09:16:41.789	-0.068991
09:16:42.189	-0.069028
09:16:42.489	-0.068965
09:16:42.889	-0.069009
09:16:43.189	-0.069053
09:16:43.589	-0.069074
09:16:43.889	-0.069082
09:16:44.290	-0.069053
09:16:44.589	-0.069091
09:16:44.989	-0.069039
09:16:45.289	-0.069044
09:16:45.689	-0.069072
09:16:45.989	-0.069038
09:16:46.389	-0.069094
09:16:46.689	-0.069099
09:16:47.089	-0.069134
09:16:47.389	-0.069073
09:16:47.789	-0.069072
09:16:48.089	-0.069064
09:16:48.489	-0.069088
09:16:48.789	-0.069077
09:16:49.189	-0.069103
09:16:49.489	-0.069023
09:16:49.889	-0.069076
09:16:50.189	-0.069048
09:16:50.589	-0.069024
09:16:50.889	-0.069027
09:16:51.289	-0.069092
09:16:51.589	-0.069031
09:16:51.989	-0.069031
09:16:52.289	-0.069035
09:16:52.689	-0.069043
09:16:52.989	-0.069047
09:16:53.389	-0.069030
09:16:53.689	-0.069051
09:16:54.089	-0.069079
09:16:54.389	-0.069045
09:16:54.789	-0.069036
09:16:55.089	-0.069102
09:16:55.489	-0.069003
09:16:55.789	-0.069051
09:16:56.189	-0.069090
09:16:56.489	-0.069063
09:16:56.889	-0.069060
09:16:57.289	-0.069082
09:16:57.589	-0.069067
09:16:57.989	-0.069103
09:16:58.289	-0.069050
09:16:58.690	-0.069061
09:16:58.990	-0.069080
09:16:59.389	-0.069083
09:16:59.690	-0.069059
09:17:00.089	-0.069015
09:17:00.389	-0.069034
09:17:00.789	-0.069015
09:17:01.089	-0.069062
09:17:01.489	-0.069050
09:17:01.789	-0.069059
09:17:02.189	-0.069029
09:17:02.490	-0.069044
09:17:02.889	-0.069003
09:17:03.189	-0.068995
09:17:03.589	-0.069051
09:17:03.889	-0.069067
09:17:04.290	-0.069042
09:17:04.589	-0.069062
09:17:04.989	-0.069052
09:17:05.289	-0.069062
09:17:05.689	-0.069050
09:17:05.989	-0.069013
09:17:06.389	-0.069046
09:17:06.689	-0.069059
09:17:07.090	-0.069086
09:17:07.389	-0.069085
09:17:07.789	-0.069074
09:17:08.089	-0.069063
09:17:08.490	-0.069100
09:17:08.789	-0.069035
09:17:09.189	-0.069100
09:17:09.490	-0.069042
09:17:09.890	-0.069089
09:17:10.289	-0.069055
09:17:10.589	-0.069021
09:17:10.989	-0.069059
09:17:11.290	-0.069082
09:17:11.689	-0.069087