Chart Recorder Data File Fri, Sep 13, 2024 10:15 AM
Time (s)	CH1 (V)  
09:59:16.503	-0.069725
09:59:17.403	-0.069710
09:59:17.703	-0.069729
09:59:18.102	-0.069739
09:59:18.403	-0.069723
09:59:18.803	-0.069720
09:59:19.103	-0.069728
09:59:19.503	-0.069726
09:59:19.802	-0.069723
09:59:20.203	-0.069754
09:59:20.503	-0.069725
09:59:20.903	-0.069745
09:59:21.303	-0.069732
09:59:21.603	-0.069715
09:59:22.003	-0.069741
09:59:22.303	-0.069726
09:59:22.703	-0.069728
09:59:23.003	-0.069729
09:59:23.403	-0.069610
09:59:23.703	-0.069607
09:59:24.103	-0.069606
09:59:24.403	-0.069609
09:59:24.803	-0.069581
09:59:25.103	-0.069593
09:59:25.503	-0.069582
09:59:25.803	-0.069550
09:59:26.203	-0.069553
09:59:26.503	-0.069566
09:59:26.903	-0.069566
09:59:27.203	-0.069548
09:59:27.603	-0.069534
09:59:27.903	-0.069572
09:59:28.303	-0.069564
09:59:28.603	-0.069570
09:59:29.003	-0.069578
09:59:29.303	-0.069591
09:59:29.703	-0.069609
09:59:30.003	-0.069596
09:59:30.403	-0.069573
09:59:30.703	-0.069569
09:59:31.103	-0.069598
09:59:31.503	-0.069580
09:59:31.803	-0.069587
09:59:32.203	-0.069604
09:59:32.503	-0.069606
09:59:32.903	-0.069600
09:59:33.202	-0.069599
09:59:33.603	-0.069602
09:59:33.902	-0.069578
09:59:34.303	-0.069591
09:59:34.603	-0.069595
09:59:35.003	-0.069616
09:59:35.303	-0.069604
09:59:35.703	-0.069578
09:59:36.003	-0.069570
09:59:36.403	-0.069584
09:59:36.703	-0.069603
09:59:37.103	-0.069594
09:59:37.403	-0.069581
09:59:37.803	-0.069572
09:59:38.103	-0.069602
09:59:38.503	-0.069593
09:59:38.803	-0.069576
09:59:39.203	-0.069595
09:59:39.503	-0.069608
09:59:39.903	-0.069599
09:59:40.203	-0.069557
09:59:40.603	-0.069588
09:59:40.903	-0.069622
09:59:41.303	-0.069602
09:59:41.603	-0.069578
09:59:42.003	-0.069581
09:59:42.303	-0.069585
09:59:42.703	-0.069593
09:59:43.003	-0.069578
09:59:43.403	-0.069603
09:59:43.703	-0.069603
09:59:44.103	-0.069587
09:59:44.404	-0.069587
09:59:44.803	-0.069600
09:59:45.103	-0.069587
09:59:45.503	-0.069566
09:59:45.804	-0.069568
09:59:46.203	-0.069569
09:59:46.503	-0.069575
09:59:46.903	-0.069570
09:59:47.203	-0.069593
09:59:47.603	-0.069575
09:59:47.903	-0.069573
09:59:48.303	-0.069561
09:59:48.603	-0.069579
09:59:49.003	-0.069577
09:59:49.303	-0.069579
09:59:49.703	-0.069567
09:59:50.003	-0.069588
09:59:50.403	-0.069575
09:59:50.703	-0.069577
09:59:51.103	-0.069579
09:59:51.403	-0.069585
09:59:51.803	-0.069571
09:59:52.103	-0.069562
09:59:52.503	-0.069578
09:59:52.803	-0.069567
09:59:53.203	-0.069563
09:59:53.503	-0.069538
09:59:53.903	-0.069544
09:59:54.203	-0.069564
09:59:54.603	-0.069554
09:59:54.903	-0.069557
09:59:55.303	-0.069590
09:59:55.603	-0.069538
09:59:56.003	-0.069567
09:59:56.303	-0.069580
09:59:56.703	-0.069568
09:59:57.003	-0.069524
09:59:57.403	-0.069550
09:59:57.703	-0.069577
09:59:58.103	-0.069594
09:59:58.403	-0.069555
09:59:58.803	-0.069574
09:59:59.103	-0.069569
09:59:59.503	-0.069553
09:59:59.803	-0.069552
10:00:00.203	-0.069552
10:00:00.503	-0.069555
10:00:00.903	-0.069534
10:00:01.203	-0.069539
10:00:01.604	-0.069538
10:00:01.903	-0.069552
10:00:02.303	-0.069553
10:00:02.603	-0.069569
10:00:03.003	-0.069521
10:00:03.303	-0.069579
10:00:03.703	-0.069547
10:00:04.003	-0.069540
10:00:04.403	-0.069567
10:00:04.703	-0.069572
10:00:05.103	-0.069585
10:00:05.404	-0.069575
10:00:05.803	-0.069558
10:00:06.103	-0.069576
10:00:06.503	-0.069570
10:00:06.803	-0.069579
10:00:07.203	-0.069567
10:00:07.504	-0.069570
10:00:07.903	-0.069570
10:00:08.203	-0.069550
10:00:08.603	-0.069555
10:00:08.904	-0.069542
10:00:09.303	-0.069529
10:00:09.603	-0.069502
10:00:10.003	-0.069513
10:00:10.303	-0.069537
10:00:10.703	-0.069498
10:00:11.003	-0.069525
10:00:11.403	-0.069528
10:00:11.703	-0.069552
10:00:12.103	-0.069525
10:00:12.403	-0.069537
10:00:12.803	-0.069525
10:00:13.103	-0.069538
10:00:13.504	-0.069542
10:00:13.803	-0.069566
10:00:14.203	-0.069529
10:00:14.503	-0.069553
10:00:14.903	-0.069577
10:00:15.204	-0.069564
10:00:15.603	-0.069563
10:00:15.903	-0.069565
10:00:16.303	-0.069558
10:00:16.604	-0.069546
10:00:17.003	-0.069586
10:00:17.303	-0.069549
10:00:17.703	-0.069564
10:00:18.003	-0.069580
10:00:18.403	-0.069581
10:00:18.703	-0.069573
10:00:19.103	-0.069586
10:00:19.404	-0.069572
10:00:19.804	-0.069562
10:00:20.103	-0.069571
10:00:20.504	-0.069543
10:00:20.803	-0.069548
10:00:21.203	-0.069559
10:00:21.503	-0.069537
10:00:21.903	-0.069556
10:00:22.203	-0.069572
10:00:22.603	-0.069561
10:00:22.903	-0.069578
10:00:23.303	-0.069558
10:00:23.603	-0.069545
10:00:24.003	-0.069539
10:00:24.303	-0.069561
10:00:24.704	-0.069569
10:00:25.003	-0.069570
10:00:25.403	-0.069558
10:00:25.704	-0.069550
10:00:26.104	-0.069530
10:00:26.403	-0.069548
10:00:26.803	-0.069543
10:00:27.103	-0.069527
10:00:27.503	-0.069535
10:00:27.803	-0.069528
10:00:28.203	-0.069558
10:00:28.503	-0.069561
10:00:28.903	-0.069553
10:00:29.203	-0.069542
10:00:29.603	-0.069555
10:00:29.903	-0.069547
10:00:30.303	-0.069523
10:00:30.603	-0.069502
10:00:31.003	-0.069524
10:00:31.303	-0.069527
10:00:31.703	-0.069552
10:00:32.003	-0.069517
10:00:32.403	-0.069548
10:00:32.704	-0.069499
10:00:33.103	-0.069529
10:00:33.404	-0.069513
10:00:33.803	-0.069503
10:00:34.103	-0.069511
10:00:34.503	-0.069496
10:00:34.804	-0.069519
10:00:35.204	-0.069522
10:00:35.503	-0.069529
10:00:35.904	-0.069528
10:00:36.203	-0.069528
10:00:36.603	-0.069508
10:00:36.903	-0.069523
10:00:37.303	-0.069552
10:00:37.603	-0.069554
10:00:38.004	-0.069532
10:00:38.303	-0.069544
10:00:38.703	-0.069541
10:00:39.003	-0.069550
10:00:39.403	-0.069542
10:00:39.704	-0.069534
10:00:40.103	-0.069546
10:00:40.403	-0.069559
10:00:40.803	-0.069547
10:00:41.104	-0.069548
10:00:41.404	-0.069529
10:00:41.804	-0.069567
10:00:42.103	-0.069532
10:00:42.504	-0.069529
10:00:42.803	-0.069513
10:00:43.203	-0.069522
10:00:43.503	-0.069544
10:00:43.903	-0.069569
10:00:44.203	-0.069552
10:00:44.603	-0.069535
10:00:44.904	-0.069519
10:00:45.303	-0.069558
10:00:45.603	-0.069513
10:00:46.003	-0.069545
10:00:46.303	-0.069542
10:00:46.703	-0.069544
10:00:47.003	-0.069558
10:00:47.404	-0.069531
10:00:47.704	-0.069539
10:00:48.103	-0.069504
10:00:48.403	-0.069550
10:00:48.803	-0.069538
10:00:49.103	-0.069531
10:00:49.503	-0.069530
10:00:49.804	-0.069542
10:00:50.203	-0.069538
10:00:50.503	-0.069543
10:00:50.903	-0.069517
10:00:51.203	-0.069516
10:00:51.604	-0.069524
10:00:51.904	-0.069505
10:00:52.303	-0.069528
10:00:52.704	-0.069540
10:00:53.003	-0.069536
10:00:53.404	-0.069514
10:00:53.703	-0.069488
10:00:54.103	-0.069548
10:00:54.404	-0.069546
10:00:54.803	-0.069529
10:00:55.103	-0.069536
10:00:55.504	-0.069524
10:00:55.804	-0.069519
10:00:56.203	-0.069531
10:00:56.503	-0.069525
10:00:56.903	-0.069519
10:00:57.204	-0.069531
10:00:57.604	-0.069528
10:00:57.903	-0.069523
10:00:58.303	-0.069515
10:00:58.603	-0.069510
10:00:59.003	-0.069527
10:00:59.303	-0.069531
10:00:59.703	-0.069544
10:01:00.004	-0.069529
10:01:00.404	-0.069530
10:01:00.703	-0.069543
10:01:01.103	-0.069494
10:01:01.403	-0.069510
10:01:01.803	-0.069517
10:01:02.104	-0.069511
10:01:02.504	-0.069510
10:01:02.804	-0.069517
10:01:03.204	-0.069502
10:01:03.503	-0.069531
10:01:03.903	-0.069529
10:01:04.203	-0.069536
10:01:04.603	-0.069520
10:01:04.904	-0.069531
10:01:05.303	-0.069532
10:01:05.603	-0.069545
10:01:06.004	-0.069515
10:01:06.304	-0.069514
10:01:06.703	-0.069525
10:01:07.003	-0.069535
10:01:07.403	-0.069565
10:01:07.703	-0.069559
10:01:08.103	-0.069523
10:01:08.403	-0.069534
10:01:08.804	-0.069519
10:01:09.103	-0.069568
10:01:09.504	-0.069537
10:01:09.803	-0.069528
10:01:10.205	-0.069538
10:01:10.503	-0.069554
10:01:10.904	-0.069553
10:01:11.204	-0.069567
10:01:11.603	-0.069566
10:01:11.904	-0.069545
10:01:12.303	-0.069552
10:01:12.603	-0.069560
10:01:13.004	-0.069534
10:01:13.304	-0.069565
10:01:13.703	-0.069582
10:01:14.004	-0.069586
10:01:14.403	-0.069564
10:01:14.703	-0.069566
10:01:15.103	-0.069575
10:01:15.403	-0.069564
10:01:15.803	-0.069590
10:01:16.104	-0.069575
10:01:16.503	-0.069584
10:01:16.803	-0.069584
10:01:17.204	-0.069605
10:01:17.503	-0.069599
10:01:17.904	-0.069589
10:01:18.204	-0.069573
10:01:18.604	-0.069592
10:01:19.004	-0.069588
10:01:19.304	-0.069599
10:01:19.703	-0.069578
10:01:20.003	-0.069591
10:01:20.403	-0.069600
10:01:20.705	-0.069589
10:01:21.103	-0.069576
10:01:21.404	-0.069585
10:01:21.804	-0.069571
10:01:22.104	-0.069618
10:01:22.503	-0.069629
10:01:22.804	-0.069599
10:01:23.204	-0.069610
10:01:23.504	-0.069599
10:01:23.904	-0.069599
10:01:24.204	-0.069585
10:01:24.603	-0.069625
10:01:24.904	-0.069608
10:01:25.304	-0.069596
10:01:25.603	-0.069594
10:01:26.004	-0.069602
10:01:26.304	-0.069604
10:01:26.704	-0.069589
10:01:27.004	-0.069626
10:01:27.404	-0.069626
10:01:27.703	-0.069634
10:01:28.103	-0.069608
10:01:28.403	-0.069589
10:01:28.804	-0.069607
10:01:29.104	-0.069607
10:01:29.503	-0.069589
10:01:29.804	-0.069617
10:01:30.204	-0.069630
10:01:30.504	-0.069633
10:01:30.903	-0.069614
10:01:31.203	-0.069625
10:01:31.604	-0.069601
10:01:32.003	-0.069616
10:01:32.304	-0.069604
10:01:32.703	-0.069616
10:01:33.004	-0.069618
10:01:33.403	-0.069609
10:01:33.703	-0.069610
10:01:34.104	-0.069582
10:01:34.403	-0.069578
10:01:34.804	-0.069590
10:01:35.104	-0.069604
10:01:35.503	-0.069589
10:01:35.805	-0.069590
10:01:36.203	-0.069588
10:01:36.504	-0.069595
10:01:36.903	-0.069609
10:01:37.203	-0.069612
10:01:37.604	-0.069624
10:01:37.904	-0.069617
10:01:38.304	-0.069589
10:01:38.603	-0.069600
10:01:39.004	-0.069613
10:01:39.304	-0.069599
10:01:39.704	-0.069582
10:01:40.004	-0.069591
10:01:40.404	-0.069608
10:01:40.704	-0.069591
10:01:41.104	-0.069606
10:01:41.404	-0.069613
10:01:41.805	-0.069599
10:01:42.104	-0.069627
10:01:42.504	-0.069683
10:01:42.803	-0.069522
10:01:43.204	-0.069614
10:01:43.504	-0.069625
10:01:43.904	-0.069614
10:01:44.203	-0.069573
10:01:44.604	-0.069582
10:01:44.904	-0.069582
10:01:45.303	-0.069602
10:01:45.604	-0.069554
10:01:46.003	-0.069597
10:01:46.304	-0.069598
10:01:46.704	-0.069547
10:01:47.004	-0.069584
10:01:47.404	-0.069572
10:01:47.704	-0.069597
10:01:48.104	-0.069587
10:01:48.404	-0.069588
10:01:48.804	-0.069581
10:01:49.104	-0.069595
10:01:49.503	-0.069561
10:01:49.804	-0.069561
10:01:50.203	-0.069605
10:01:50.504	-0.069598
10:01:50.904	-0.069601
10:01:51.203	-0.069621
10:01:51.604	-0.069615
10:01:51.904	-0.069598
10:01:52.304	-0.069621
10:01:52.603	-0.069601
10:01:53.004	-0.069599
10:01:53.304	-0.069631
10:01:53.704	-0.069606
10:01:54.004	-0.069602
10:01:54.404	-0.069598
10:01:54.704	-0.069592
10:01:55.104	-0.069596
10:01:55.404	-0.069593
10:01:55.803	-0.069586
10:01:56.103	-0.069574
10:01:56.504	-0.069580
10:01:56.804	-0.069565
10:01:57.204	-0.069568
10:01:57.504	-0.069595
10:01:57.903	-0.069583
10:01:58.304	-0.069614
10:01:58.603	-0.069612
10:01:59.003	-0.069584
10:01:59.304	-0.069559
10:01:59.704	-0.069575
10:02:00.003	-0.069599
10:02:00.404	-0.069574
10:02:00.704	-0.069602
10:02:01.104	-0.069571
10:02:01.404	-0.069583
10:02:01.804	-0.069546
10:02:02.104	-0.069534
10:02:02.504	-0.069584
10:02:02.804	-0.069600
10:02:03.204	-0.069556
10:02:03.504	-0.069591
10:02:03.904	-0.069558
10:02:04.204	-0.069565
10:02:04.604	-0.069596
10:02:04.904	-0.069562
10:02:05.304	-0.069549
10:02:05.604	-0.069540
10:02:06.003	-0.069571
10:02:06.304	-0.069550
10:02:06.704	-0.069541
10:02:07.004	-0.069542
10:02:07.404	-0.069543
10:02:07.703	-0.069544
10:02:08.104	-0.069549
10:02:08.404	-0.069558
10:02:08.804	-0.069584
10:02:09.104	-0.069575
10:02:09.503	-0.069566
10:02:09.804	-0.069569
10:02:10.203	-0.069578
10:02:10.504	-0.069581
10:02:10.904	-0.069558
10:02:11.303	-0.069547
10:02:11.604	-0.069546
10:02:12.004	-0.069553
10:02:12.304	-0.069571
10:02:12.704	-0.069577
10:02:13.004	-0.069616
10:02:13.404	-0.069596
10:02:13.704	-0.069555
10:02:14.104	-0.069572
10:02:14.403	-0.069547
10:02:14.803	-0.069518
10:02:15.104	-0.069552
10:02:15.504	-0.069553
10:02:15.804	-0.069551
10:02:16.204	-0.069566
10:02:16.504	-0.069588
10:02:16.904	-0.069556
10:02:17.204	-0.069535
10:02:17.604	-0.069558
10:02:17.904	-0.069569
10:02:18.304	-0.069587
10:02:18.604	-0.069567
10:02:19.004	-0.069557
10:02:19.304	-0.069584
10:02:19.704	-0.069573
10:02:20.004	-0.069578
10:02:20.404	-0.069580
10:02:20.704	-0.069577
10:02:21.104	-0.069585
10:02:21.404	-0.069578
10:02:21.804	-0.069579
10:02:22.104	-0.069598
10:02:22.504	-0.069564
10:02:22.804	-0.069563
10:02:23.204	-0.069546
10:02:23.504	-0.069542
10:02:23.904	-0.069544
10:02:24.204	-0.069563
10:02:24.604	-0.069534
10:02:24.904	-0.069523
10:02:25.304	-0.069563
10:02:25.604	-0.069555
10:02:26.005	-0.069567
10:02:26.304	-0.069538
10:02:26.704	-0.069540
10:02:27.003	-0.069523
10:02:27.404	-0.069555
10:02:27.704	-0.069546
10:02:28.104	-0.069514
10:02:28.403	-0.069506
10:02:28.803	-0.069534
10:02:29.104	-0.069556
10:02:29.504	-0.069541
10:02:29.804	-0.069517
10:02:30.203	-0.069564
10:02:30.503	-0.069529
10:02:30.904	-0.069528
10:02:31.204	-0.069539
10:02:31.604	-0.069549
10:02:31.904	-0.069530
10:02:32.304	-0.069523
10:02:32.604	-0.069517
10:02:33.004	-0.069516
10:02:33.304	-0.069523
10:02:33.705	-0.069533
10:02:34.004	-0.069547
10:02:34.404	-0.069534
10:02:34.704	-0.069537
10:02:35.105	-0.069511
10:02:35.404	-0.069538
10:02:35.804	-0.069550
10:02:36.104	-0.069555
10:02:36.404	-0.069533
10:02:36.804	-0.069561
10:02:37.104	-0.069538
10:02:37.504	-0.069532
10:02:37.804	-0.069511
10:02:38.204	-0.069522
10:02:38.504	-0.069528
10:02:38.904	-0.069510
10:02:39.204	-0.069487
10:02:39.604	-0.069499
10:02:39.904	-0.069528
10:02:40.304	-0.069532
10:02:40.604	-0.069528
10:02:41.003	-0.069528
10:02:41.304	-0.069528
10:02:41.704	-0.069508
10:02:42.004	-0.069538
10:02:42.404	-0.069508
10:02:42.704	-0.069512
10:02:43.104	-0.069520
10:02:43.404	-0.069510
10:02:43.804	-0.069519
10:02:44.104	-0.069508
10:02:44.504	-0.069537
10:02:44.804	-0.069531
10:02:45.204	-0.069513
10:02:45.504	-0.069483
10:02:45.904	-0.069489
10:02:46.204	-0.069497
10:02:46.604	-0.069500
10:02:46.904	-0.069488
10:02:47.304	-0.069488
10:02:47.604	-0.069477
10:02:48.004	-0.069488
10:02:48.304	-0.069488
10:02:48.704	-0.069484
10:02:49.004	-0.069475
10:02:49.404	-0.069458
10:02:49.704	-0.069473
10:02:50.104	-0.069455
10:02:50.404	-0.069459
10:02:50.804	-0.069499
10:02:51.104	-0.069452
10:02:51.504	-0.069504
10:02:51.804	-0.069481
10:02:52.204	-0.069459
10:02:52.504	-0.069478
10:02:52.904	-0.069499
10:02:53.204	-0.069490
10:02:53.604	-0.069483
10:02:53.904	-0.069484
10:02:54.304	-0.069469
10:02:54.604	-0.069478
10:02:55.004	-0.069470
10:02:55.304	-0.069432
10:02:55.705	-0.069487
10:02:56.004	-0.069476
10:02:56.404	-0.069464
10:02:56.704	-0.069464
10:02:57.104	-0.069436
10:02:57.404	-0.069466
10:02:57.804	-0.069460
10:02:58.104	-0.069462
10:02:58.504	-0.069481
10:02:58.804	-0.069443
10:02:59.204	-0.069416
10:02:59.504	-0.069460
10:02:59.904	-0.069441
10:03:00.205	-0.069433
10:03:00.604	-0.069429
10:03:00.904	-0.069439
10:03:01.304	-0.069455
10:03:01.604	-0.069461
10:03:02.004	-0.069423
10:03:02.305	-0.069414
10:03:02.704	-0.069458
10:03:03.004	-0.069425
10:03:03.404	-0.069437
10:03:03.704	-0.069434
10:03:04.104	-0.069457
10:03:04.404	-0.069442
10:03:04.804	-0.069453
10:03:05.104	-0.069455
10:03:05.504	-0.069439
10:03:05.804	-0.069447
10:03:06.204	-0.069452
10:03:06.504	-0.069455
10:03:06.904	-0.069449
10:03:07.204	-0.069448
10:03:07.604	-0.069474
10:03:07.904	-0.069467
10:03:08.304	-0.069435
10:03:08.604	-0.069414
10:03:09.004	-0.069425
10:03:09.304	-0.069414
10:03:09.704	-0.069427
10:03:10.004	-0.069433
10:03:10.304	-0.069420
10:03:10.704	-0.069399
10:03:11.004	-0.069424
10:03:11.405	-0.069422
10:03:11.704	-0.069399
10:03:12.104	-0.069419
10:03:12.404	-0.069432
10:03:12.804	-0.069419
10:03:13.104	-0.069412
10:03:13.504	-0.069444
10:03:13.804	-0.069441
10:03:14.204	-0.069414
10:03:14.504	-0.069398
10:03:14.904	-0.069468
10:03:15.204	-0.069427
10:03:15.604	-0.069426
10:03:15.904	-0.069421
10:03:16.304	-0.069449
10:03:16.704	-0.069454
10:03:17.004	-0.069440
10:03:17.405	-0.069426
10:03:17.704	-0.069420
10:03:18.105	-0.069418
10:03:18.404	-0.069433
10:03:18.804	-0.069422
10:03:19.104	-0.069425
10:03:19.504	-0.069398
10:03:19.804	-0.069417
10:03:20.204	-0.069428
10:03:20.504	-0.069417
10:03:20.904	-0.069390
10:03:21.204	-0.069410
10:03:21.604	-0.069413
10:03:21.904	-0.069425
10:03:22.304	-0.069429
10:03:22.704	-0.069404
10:03:23.004	-0.069415
10:03:23.405	-0.069387
10:03:23.804	-0.069398
10:03:24.104	-0.069398
10:03:24.504	-0.069391
10:03:24.805	-0.069422
10:03:25.204	-0.069424
10:03:25.504	-0.069378
10:03:25.905	-0.069393
10:03:26.204	-0.069390
10:03:26.604	-0.069406
10:03:26.904	-0.069382
10:03:27.304	-0.069389
10:03:27.604	-0.069400
10:03:28.004	-0.069386
10:03:28.304	-0.069396
10:03:28.704	-0.069398
10:03:29.004	-0.069389
10:03:29.404	-0.069395
10:03:29.704	-0.069382
10:03:30.104	-0.069361
10:03:30.405	-0.069371
10:03:30.805	-0.069360
10:03:31.105	-0.069386
10:03:31.504	-0.069354
10:03:31.804	-0.069389
10:03:32.204	-0.069321
10:03:32.504	-0.069367
10:03:32.904	-0.069347
10:03:33.205	-0.069339
10:03:33.604	-0.069355
10:03:33.904	-0.069338
10:03:34.304	-0.069306
10:03:34.604	-0.069346
10:03:35.004	-0.069342
10:03:35.304	-0.069360
10:03:35.704	-0.069363
10:03:36.004	-0.069365
10:03:36.404	-0.069337
10:03:36.704	-0.069339
10:03:37.104	-0.069376
10:03:37.404	-0.069369
10:03:37.804	-0.069326
10:03:38.104	-0.069347
10:03:38.504	-0.069329
10:03:38.804	-0.069336
10:03:39.204	-0.069389
10:03:39.504	-0.069362
10:03:39.904	-0.069308
10:03:40.205	-0.069305
10:03:40.504	-0.069350
10:03:40.905	-0.069291
10:03:41.204	-0.069293
10:03:41.604	-0.069323
10:03:41.904	-0.069294
10:03:42.304	-0.069331
10:03:42.604	-0.069306
10:03:43.005	-0.069325
10:03:43.305	-0.069288
10:03:43.705	-0.069304
10:03:44.004	-0.069314
10:03:44.404	-0.069289
10:03:44.704	-0.069300
10:03:45.104	-0.069280
10:03:45.404	-0.069274
10:03:45.804	-0.069313
10:03:46.104	-0.069307
10:03:46.504	-0.069254
10:03:46.804	-0.069271
10:03:47.205	-0.069281
10:03:47.504	-0.069281
10:03:47.905	-0.069259
10:03:48.204	-0.069297
10:03:48.605	-0.069289
10:03:48.905	-0.069276
10:03:49.305	-0.069281
10:03:49.605	-0.069273
10:03:50.004	-0.069267
10:03:50.304	-0.069298
10:03:50.704	-0.069307
10:03:51.005	-0.069294
10:03:51.404	-0.069264
10:03:51.704	-0.069272
10:03:52.104	-0.069227
10:03:52.404	-0.069221
10:03:52.804	-0.069246
10:03:53.104	-0.069212
10:03:53.405	-0.069235
10:03:53.804	-0.069196
10:03:54.104	-0.069211
10:03:54.504	-0.069246
10:03:54.805	-0.069194
10:03:55.204	-0.069236
10:03:55.504	-0.069242
10:03:55.904	-0.069242
10:03:56.204	-0.069249
10:03:56.604	-0.069240
10:03:56.904	-0.069238
10:03:57.304	-0.069220
10:03:57.604	-0.069254
10:03:58.004	-0.069223
10:03:58.305	-0.069207
10:03:58.605	-0.069235
10:03:59.005	-0.069260
10:03:59.304	-0.069246
10:03:59.704	-0.069246
10:04:00.004	-0.069178
10:04:00.404	-0.069195
10:04:00.705	-0.069205
10:04:01.105	-0.069218
10:04:01.404	-0.069233
10:04:01.805	-0.069214
10:04:02.104	-0.069212
10:04:02.504	-0.069182
10:04:02.804	-0.069228
10:04:03.205	-0.069202
10:04:03.504	-0.069219
10:04:03.904	-0.069221
10:04:04.205	-0.069216
10:04:04.605	-0.069164
10:04:05.005	-0.069150
10:04:05.304	-0.069213
10:04:05.705	-0.069167
10:04:06.004	-0.069222
10:04:06.404	-0.069228
10:04:06.705	-0.069160
10:04:07.104	-0.069186
10:04:07.404	-0.069176
10:04:07.704	-0.069175
10:04:08.104	-0.069192
10:04:08.404	-0.069200
10:04:08.805	-0.069140
10:04:09.104	-0.069152
10:04:09.504	-0.069160
10:04:09.804	-0.069144
10:04:10.204	-0.069134
10:04:10.505	-0.069112
10:04:10.904	-0.069097
10:04:11.205	-0.069154
10:04:11.604	-0.069096
10:04:11.905	-0.069068
10:04:12.305	-0.069086
10:04:12.604	-0.069036
10:04:13.004	-0.069006
10:04:13.304	-0.068988
10:04:13.705	-0.068988
10:04:14.004	-0.068940
10:04:14.404	-0.068925
10:04:14.705	-0.068953
10:04:15.104	-0.068948
10:04:15.405	-0.068976
10:04:15.804	-0.068957
10:04:16.105	-0.068963
10:04:16.504	-0.068998
10:04:16.804	-0.069012
10:04:17.204	-0.068991
10:04:17.505	-0.069023
10:04:17.904	-0.069053
10:04:18.205	-0.069023
10:04:18.605	-0.069009
10:04:18.905	-0.069016
10:04:19.304	-0.069023
10:04:19.605	-0.069016
10:04:20.005	-0.069099
10:04:20.305	-0.069090
10:04:20.705	-0.069070
10:04:21.004	-0.069081
10:04:21.404	-0.069021
10:04:21.705	-0.069055
10:04:22.105	-0.069057
10:04:22.405	-0.069035
10:04:22.805	-0.069082
10:04:23.104	-0.069026
10:04:23.504	-0.068975
10:04:23.805	-0.069033
10:04:24.205	-0.068987
10:04:24.505	-0.069007
10:04:24.904	-0.068970
10:04:25.204	-0.068971
10:04:25.605	-0.068928
10:04:25.905	-0.068997
10:04:26.304	-0.068938
10:04:26.604	-0.068976
10:04:27.005	-0.068962
10:04:27.304	-0.069025
10:04:27.705	-0.068958
10:04:28.004	-0.068999
10:04:28.404	-0.068966
10:04:28.705	-0.068982
10:04:29.105	-0.069003
10:04:29.405	-0.069032
10:04:29.706	-0.069005
10:04:30.105	-0.068956
10:04:30.404	-0.068984
10:04:30.805	-0.069011
10:04:31.104	-0.068980
10:04:31.504	-0.068950
10:04:31.805	-0.068985
10:04:32.205	-0.068967
10:04:32.504	-0.068988
10:04:32.904	-0.068899
10:04:33.204	-0.068971
10:04:33.604	-0.068952
10:04:33.905	-0.068950
10:04:34.305	-0.068940
10:04:34.604	-0.068887
10:04:35.005	-0.068915
10:04:35.304	-0.068932
10:04:35.705	-0.068884
10:04:36.004	-0.068837
10:04:36.405	-0.068872
10:04:36.705	-0.068895
10:04:37.104	-0.068894
10:04:37.405	-0.068866
10:04:37.805	-0.068941
10:04:38.105	-0.068864
10:04:38.505	-0.068830
10:04:38.805	-0.068836
10:04:39.204	-0.068919
10:04:39.605	-0.068890
10:04:39.904	-0.068878
10:04:40.305	-0.068874
10:04:40.605	-0.068820
10:04:41.005	-0.068837
10:04:41.305	-0.068856
10:04:41.705	-0.068805
10:04:42.004	-0.068852
10:04:42.405	-0.068838
10:04:42.704	-0.068863
10:04:43.105	-0.068822
10:04:43.405	-0.068877
10:04:43.806	-0.068854
10:04:44.104	-0.068872
10:04:44.505	-0.068833
10:04:44.804	-0.068804
10:04:45.205	-0.068825
10:04:45.505	-0.068757
10:04:45.905	-0.068783
10:04:46.204	-0.068772
10:04:46.605	-0.068828
10:04:46.905	-0.068802
10:04:47.305	-0.068748
10:04:47.604	-0.068715
10:04:48.004	-0.068713
10:04:48.405	-0.068764
10:04:48.705	-0.068700
10:04:49.105	-0.068740
10:04:49.405	-0.068774
10:04:49.804	-0.068681
10:04:50.105	-0.068763
10:04:50.505	-0.068784
10:04:50.805	-0.068784
10:04:51.205	-0.068757
10:04:51.504	-0.068705
10:04:51.905	-0.068714
10:04:52.205	-0.068680
10:04:52.604	-0.068738
10:04:52.905	-0.068773
10:04:53.305	-0.068740
10:04:53.605	-0.068759
10:04:54.004	-0.068718
10:04:54.305	-0.068757
10:04:54.704	-0.068711
10:04:55.005	-0.068724
10:04:55.405	-0.068689
10:04:55.705	-0.068655
10:04:56.105	-0.068691
10:04:56.404	-0.068669
10:04:56.805	-0.068624
10:04:57.105	-0.068647
10:04:57.505	-0.068699
10:04:57.805	-0.068626
10:04:58.205	-0.068677
10:04:58.505	-0.068646
10:04:58.905	-0.068620
10:04:59.204	-0.068618
10:04:59.605	-0.068627
10:04:59.905	-0.068602
10:05:00.305	-0.068551
10:05:00.605	-0.068589
10:05:01.005	-0.068597
10:05:01.405	-0.068586
10:05:01.705	-0.068585
10:05:02.105	-0.068483
10:05:02.405	-0.068531
10:05:02.805	-0.068535
10:05:03.104	-0.068548
10:05:03.505	-0.068551
10:05:03.805	-0.068474
10:05:04.204	-0.068586
10:05:04.504	-0.068549
10:05:04.905	-0.068521
10:05:05.205	-0.068551
10:05:05.604	-0.068486
10:05:05.905	-0.068506
10:05:06.305	-0.068493
10:05:06.605	-0.068528
10:05:07.005	-0.068527
10:05:07.305	-0.068446
10:05:07.705	-0.068495
10:05:08.004	-0.068479
10:05:08.405	-0.068430
10:05:08.705	-0.068477
10:05:09.104	-0.068465
10:05:09.406	-0.068444
10:05:09.805	-0.068413
10:05:10.105	-0.068501
10:05:10.505	-0.068398
10:05:10.805	-0.068360
10:05:11.205	-0.068378
10:05:11.505	-0.068328
10:05:11.905	-0.068335
10:05:12.205	-0.068310
10:05:12.605	-0.068361
10:05:12.905	-0.068342
10:05:13.305	-0.068249
10:05:13.605	-0.068313
10:05:14.005	-0.068277
10:05:14.305	-0.068246
10:05:14.705	-0.068231
10:05:15.005	-0.068356
10:05:15.405	-0.068294
10:05:15.704	-0.068306
10:05:16.105	-0.068236
10:05:16.405	-0.068267
10:05:16.805	-0.068273
10:05:17.105	-0.068296
10:05:17.504	-0.068307
10:05:17.805	-0.068208
10:05:18.205	-0.068188
10:05:18.505	-0.068240
10:05:18.905	-0.068201
10:05:19.205	-0.068155
10:05:19.605	-0.068135
10:05:19.905	-0.068158
10:05:20.305	-0.068119
10:05:20.605	-0.068129
10:05:21.005	-0.068150
10:05:21.304	-0.068131
10:05:21.705	-0.068094
10:05:22.005	-0.068087
10:05:22.405	-0.068109
10:05:22.705	-0.068129
10:05:23.105	-0.068080
10:05:23.405	-0.068051
10:05:23.805	-0.068111
10:05:24.105	-0.068058
10:05:24.505	-0.068083
10:05:24.805	-0.068090
10:05:25.205	-0.068058
10:05:25.505	-0.068032
10:05:25.905	-0.067972
10:05:26.205	-0.067918
10:05:26.605	-0.067937
10:05:26.905	-0.067941
10:05:27.305	-0.067868
10:05:27.605	-0.067734
10:05:28.005	-0.067777
10:05:28.305	-0.067890
10:05:28.705	-0.067881
10:05:29.004	-0.067890
10:05:29.405	-0.067763
10:05:29.705	-0.067771
10:05:30.105	-0.067829
10:05:30.405	-0.067762
10:05:30.805	-0.067749
10:05:31.104	-0.067734
10:05:31.505	-0.067742
10:05:31.805	-0.067785
10:05:32.205	-0.067720
10:05:32.504	-0.067678
10:05:32.906	-0.067674
10:05:33.205	-0.067728
10:05:33.605	-0.067642
10:05:33.905	-0.067675
10:05:34.305	-0.067679
10:05:34.606	-0.067539
10:05:35.005	-0.067514
10:05:35.305	-0.067539
10:05:35.705	-0.067524
10:05:36.005	-0.067574
10:05:36.405	-0.067512
10:05:36.705	-0.067517
10:05:37.105	-0.067511
10:05:37.405	-0.067435
10:05:37.805	-0.067422
10:05:38.104	-0.067389
10:05:38.505	-0.067220
10:05:38.805	-0.067167
10:05:39.205	-0.067109
10:05:39.505	-0.067164
10:05:39.905	-0.067099
10:05:40.205	-0.067101
10:05:40.605	-0.066841
10:05:40.905	-0.066833
10:05:41.305	-0.066847
10:05:41.605	-0.066872
10:05:42.005	-0.067023
10:05:42.305	-0.066971
10:05:42.704	-0.067036
10:05:43.005	-0.066985
10:05:43.405	-0.067012
10:05:43.705	-0.067034
10:05:44.105	-0.066937
10:05:44.405	-0.066927
10:05:44.805	-0.066888
10:05:45.104	-0.066827
10:05:45.406	-0.066976
10:05:45.805	-0.066797
10:05:46.105	-0.066791
10:05:46.505	-0.066765
10:05:46.805	-0.066728
10:05:47.205	-0.066716
10:05:47.505	-0.066654
10:05:47.905	-0.066689
10:05:48.205	-0.066668
10:05:48.605	-0.066682
10:05:48.905	-0.066637
10:05:49.305	-0.066543
10:05:49.605	-0.066546
10:05:50.005	-0.066439
10:05:50.305	-0.066455
10:05:50.705	-0.066434
10:05:51.005	-0.066390
10:05:51.405	-0.066543
10:05:51.705	-0.066347
10:05:52.105	-0.066323
10:05:52.405	-0.066325
10:05:52.805	-0.066311
10:05:53.105	-0.066211
10:05:53.505	-0.066252
10:05:53.805	-0.066175
10:05:54.205	-0.066050
10:05:54.505	-0.066019
10:05:54.905	-0.065886
10:05:55.205	-0.065869
10:05:55.605	-0.065849
10:05:55.905	-0.065734
10:05:56.305	-0.065905
10:05:56.605	-0.065892
10:05:57.005	-0.065769
10:05:57.305	-0.065740
10:05:57.705	-0.065825
10:05:58.005	-0.065723
10:05:58.405	-0.065617
10:05:58.705	-0.065506
10:05:59.105	-0.065464
10:05:59.405	-0.065367
10:05:59.805	-0.065234
10:06:00.106	-0.065145
10:06:00.506	-0.065326
10:06:00.805	-0.065162
10:06:01.205	-0.065129
10:06:01.505	-0.065163
10:06:01.905	-0.064985
10:06:02.205	-0.064760
10:06:02.605	-0.064743
10:06:02.905	-0.064823
10:06:03.305	-0.064852
10:06:03.605	-0.064801
10:06:04.005	-0.064645
10:06:04.305	-0.064531
10:06:04.705	-0.064570
10:06:05.006	-0.064455
10:06:05.405	-0.064266
10:06:05.705	-0.064385
10:06:06.106	-0.064337
10:06:06.405	-0.064296
10:06:06.805	-0.064121
10:06:07.105	-0.063821
10:06:07.405	-0.063688
10:06:07.805	-0.063625
10:06:08.105	-0.063653
10:06:08.505	-0.063431
10:06:08.805	-0.063293
10:06:09.205	-0.063057
10:06:09.505	-0.062857
10:06:09.905	-0.062662
10:06:10.205	-0.062435
10:06:10.605	-0.062204
10:06:10.905	-0.062191
10:06:11.305	-0.061862
10:06:11.605	-0.061755
10:06:12.005	-0.061328
10:06:12.305	-0.061153
10:06:12.705	-0.060844
10:06:13.005	-0.060336
10:06:13.405	-0.059467
10:06:13.705	-0.058890
10:06:14.105	-0.058026
10:06:14.405	-0.056798
10:06:14.805	-0.054999
10:06:15.106	-0.053754
10:06:15.505	-0.049845
10:06:15.806	-0.041658
10:06:16.205	-0.026570
10:06:16.505	-0.016336
10:06:16.905	0.011336
10:06:17.205	0.043586
10:06:17.605	0.065406
10:06:17.905	0.071705
10:06:18.305	0.090564
10:06:18.605	0.135917
10:06:19.005	0.222768
10:06:19.305	0.270758
10:06:19.605	0.424789
10:06:20.005	0.805492
10:06:20.305	1.138442
10:06:20.605	1.904677
10:06:21.005	4.647599
10:06:22.305	5.121159
10:06:22.605	5.637443
10:06:23.005	5.781081
10:06:23.305	5.705181
10:06:23.605	5.184148
10:06:24.005	4.360252
10:06:24.306	3.873882
10:06:24.705	3.209274
10:06:25.006	2.766637
10:06:25.405	2.379952
10:06:25.705	2.109428
10:06:26.105	1.236274
10:06:27.405	1.169586
10:06:27.705	1.053980
10:06:28.106	0.959558
10:06:28.405	0.748880
10:06:28.805	0.566713
10:06:29.105	0.404605
10:06:29.406	0.337831
10:06:29.805	0.220245
10:06:30.105	0.124070
10:06:30.405	0.069971
10:06:30.806	-0.013496
10:06:31.105	-0.047900
10:06:31.505	-0.058070
10:06:31.805	-0.059425
10:06:32.205	-0.060144
10:06:32.505	-0.060823
10:06:32.905	-0.061083
10:06:33.206	-0.061182
10:06:33.605	-0.061460
10:06:33.905	-0.061690
10:06:34.305	-0.061640
10:06:34.605	-0.061613
10:06:35.005	-0.061845
10:06:35.305	-0.062062
10:06:35.706	-0.062013
10:06:36.005	-0.062536
10:06:36.405	-0.062665
10:06:36.706	-0.062743
10:06:37.105	-0.063034
10:06:37.405	-0.063128
10:06:37.705	-0.063214
10:06:38.105	-0.063290
10:06:38.405	-0.063613
10:06:38.805	-0.063581
10:06:39.106	-0.063603
10:06:39.505	-0.063781
10:06:39.905	-0.063882
10:06:40.206	-0.064026
10:06:40.605	-0.064107
10:06:40.905	-0.064152
10:06:41.206	-0.064207
10:06:41.606	-0.064288
10:06:41.905	-0.064387
10:06:42.305	-0.064396
10:06:42.606	-0.064213
10:06:43.005	-0.064425
10:06:43.305	-0.064427
10:06:43.705	-0.064502
10:06:44.005	-0.064588
10:06:44.406	-0.064699
10:06:44.705	-0.064754
10:06:45.105	-0.064698
10:06:45.405	-0.064665
10:06:45.806	-0.064927
10:06:46.105	-0.064921
10:06:46.405	-0.064880
10:06:46.806	-0.065018
10:06:47.105	-0.064919
10:06:47.406	-0.064920
10:06:47.805	-0.064881
10:06:48.106	-0.064962
10:06:48.505	-0.065019
10:06:48.805	-0.065058
10:06:49.205	-0.065157
10:06:49.506	-0.065016
10:06:49.905	-0.064921
10:06:50.206	-0.064964
10:06:50.606	-0.065088
10:06:50.905	-0.065134
10:06:51.305	-0.065130
10:06:51.605	-0.065155
10:06:52.005	-0.065024
10:06:52.305	-0.065078
10:06:52.705	-0.065041
10:06:53.006	-0.064920
10:06:53.406	-0.065024
10:06:53.705	-0.065050
10:06:54.105	-0.064964
10:06:54.405	-0.065039
10:06:54.805	-0.065022
10:06:55.106	-0.065114
10:06:55.505	-0.065206
10:06:55.805	-0.065243
10:06:56.205	-0.065299
10:06:56.506	-0.065233
10:06:56.805	-0.065176
10:06:57.205	-0.065250
10:06:57.505	-0.065321
10:06:57.906	-0.065318
10:06:58.205	-0.065385
10:06:58.606	-0.065443
10:06:58.906	-0.065256
10:06:59.306	-0.065301
10:06:59.605	-0.065251
10:07:00.006	-0.065255
10:07:00.305	-0.065276
10:07:00.705	-0.065419
10:07:01.005	-0.065365
10:07:01.406	-0.065352
10:07:01.705	-0.065289
10:07:02.106	-0.065222
10:07:02.405	-0.065184
10:07:02.706	-0.065037
10:07:03.106	-0.064777
10:07:03.406	-0.064704
10:07:03.806	-0.064624
10:07:04.105	-0.064303
10:07:04.505	-0.064203
10:07:04.806	-0.064024
10:07:05.205	-0.063667
10:07:05.505	-0.063520
10:07:05.905	-0.063090
10:07:06.205	-0.062745
10:07:06.506	-0.062487
10:07:06.905	-0.062276
10:07:07.205	-0.061909
10:07:07.606	-0.061060
10:07:07.905	-0.060923
10:07:08.306	-0.060474
10:07:08.605	-0.059996
10:07:09.006	-0.059477
10:07:09.306	-0.059287
10:07:09.706	-0.058980
10:07:10.005	-0.058680
10:07:10.406	-0.058530
10:07:10.705	-0.058378
10:07:11.105	-0.058401
10:07:11.405	-0.058780
10:07:11.705	-0.058715
10:07:12.106	-0.058977
10:07:12.405	-0.059367
10:07:12.805	-0.059525
10:07:13.105	-0.059958
10:07:13.505	-0.060621
10:07:13.805	-0.061097
10:07:14.205	-0.061583
10:07:14.505	-0.062178
10:07:14.905	-0.062596
10:07:15.206	-0.062875
10:07:15.606	-0.063531
10:07:15.906	-0.063994
10:07:16.305	-0.064141
10:07:16.606	-0.064383
10:07:17.006	-0.064672
10:07:17.305	-0.064926
10:07:17.705	-0.065196
10:07:18.005	-0.065247
10:07:18.405	-0.065463
10:07:18.706	-0.065538
10:07:19.105	-0.065869
10:07:19.406	-0.065949
10:07:19.705	-0.066046
10:07:20.105	-0.066217
10:07:20.405	-0.066306
10:07:20.706	-0.066338
10:07:21.105	-0.066341
10:07:21.406	-0.066440
10:07:21.806	-0.066501
10:07:22.106	-0.066505
10:07:22.506	-0.066606
10:07:22.805	-0.066532
10:07:23.206	-0.066652
10:07:23.505	-0.066664
10:07:23.906	-0.066612
10:07:24.205	-0.066678
10:07:24.505	-0.066669
10:07:24.905	-0.066602
10:07:25.306	-0.066721
10:07:25.605	-0.066865
10:07:26.006	-0.066760
10:07:26.305	-0.066765
10:07:26.705	-0.066617
10:07:27.005	-0.066665
10:07:27.406	-0.066733
10:07:27.705	-0.066738
10:07:28.005	-0.066726
10:07:28.406	-0.066714
10:07:28.707	-0.066649
10:07:29.105	-0.066646
10:07:29.406	-0.066712
10:07:29.805	-0.066818
10:07:30.106	-0.066870
10:07:30.505	-0.066947
10:07:30.806	-0.066999
10:07:31.205	-0.066922
10:07:31.506	-0.067001
10:07:31.906	-0.066898
10:07:32.206	-0.066928
10:07:32.606	-0.066877
10:07:32.906	-0.066948
10:07:33.306	-0.066844
10:07:33.605	-0.066848
10:07:34.006	-0.066923
10:07:34.306	-0.066859
10:07:34.706	-0.066884
10:07:35.006	-0.066856
10:07:35.406	-0.066857
10:07:35.706	-0.066980
10:07:36.106	-0.066938
10:07:36.405	-0.066853
10:07:36.706	-0.066935
10:07:37.106	-0.066898
10:07:37.406	-0.066827
10:07:37.706	-0.066867
10:07:38.106	-0.066863
10:07:38.406	-0.066856
10:07:38.805	-0.066891
10:07:39.105	-0.066803
10:07:39.506	-0.066797
10:07:39.805	-0.066703
10:07:40.206	-0.066750
10:07:40.506	-0.066761
10:07:40.906	-0.066718
10:07:41.205	-0.066587
10:07:41.606	-0.066470
10:07:41.906	-0.066363
10:07:42.305	-0.066238
10:07:42.606	-0.066076
10:07:43.007	-0.065735
10:07:43.306	-0.065258
10:07:43.706	-0.064481
10:07:44.105	-0.063645
10:07:44.406	-0.063184
10:07:44.807	-0.061997
10:07:45.106	-0.060662
10:07:45.505	-0.058918
10:07:45.806	-0.057936
10:07:46.205	-0.055823
10:07:46.506	-0.053350
10:07:46.906	-0.050709
10:07:47.206	-0.049571
10:07:47.606	-0.047001
10:07:47.906	-0.044860
10:07:48.306	-0.042526
10:07:48.606	-0.041336
10:07:49.006	-0.039848
10:07:49.307	-0.038068
10:07:49.706	-0.037557
10:07:50.007	-0.037291
10:07:50.405	-0.037667
10:07:50.707	-0.038815
10:07:51.105	-0.040141
10:07:51.505	-0.042216
10:07:51.806	-0.044287
10:07:52.206	-0.047066
10:07:52.505	-0.048358
10:07:52.905	-0.050473
10:07:53.206	-0.052591
10:07:53.606	-0.054342
10:07:53.905	-0.055254
10:07:54.305	-0.056738
10:07:54.606	-0.058349
10:07:55.006	-0.059733
10:07:55.306	-0.060217
10:07:55.705	-0.061239
10:07:56.006	-0.062020
10:07:56.405	-0.062725
10:07:56.706	-0.063207
10:07:57.105	-0.063987
10:07:57.405	-0.064508
10:07:57.805	-0.065066
10:07:58.107	-0.065601
10:07:58.506	-0.065650
10:07:58.805	-0.066141
10:07:59.205	-0.066405
10:07:59.505	-0.066612
10:07:59.906	-0.066783
10:08:00.205	-0.066839
10:08:00.605	-0.066932
10:08:00.906	-0.067053
10:08:01.305	-0.067166
10:08:01.605	-0.067186
10:08:02.006	-0.067285
10:08:02.305	-0.067259
10:08:02.705	-0.067356
10:08:03.006	-0.067291
10:08:03.406	-0.067336
10:08:03.706	-0.067375
10:08:04.106	-0.067323
10:08:04.406	-0.067336
10:08:04.806	-0.067328
10:08:05.106	-0.067316
10:08:05.506	-0.067218
10:08:05.806	-0.067261
10:08:06.206	-0.067152
10:08:06.506	-0.067076
10:08:06.906	-0.066938
10:08:07.206	-0.066811
10:08:07.606	-0.066752
10:08:07.906	-0.066665
10:08:08.306	-0.066559
10:08:08.607	-0.066527
10:08:09.006	-0.066434
10:08:09.305	-0.066351
10:08:09.706	-0.066472
10:08:10.006	-0.066505
10:08:10.405	-0.066572
10:08:10.706	-0.066643
10:08:11.106	-0.066856
10:08:11.406	-0.066801
10:08:11.805	-0.066907
10:08:12.106	-0.067006
10:08:12.506	-0.066952
10:08:12.806	-0.066969
10:08:13.206	-0.067049
10:08:13.505	-0.067199
10:08:13.905	-0.067146
10:08:14.205	-0.067205
10:08:14.605	-0.067284
10:08:14.906	-0.067216
10:08:15.305	-0.067409
10:08:15.605	-0.067324
10:08:16.006	-0.067395
10:08:16.306	-0.067429
10:08:16.706	-0.067464
10:08:17.006	-0.067496
10:08:17.406	-0.067514
10:08:17.705	-0.067535
10:08:18.106	-0.067565
10:08:18.406	-0.067603
10:08:18.806	-0.067519
10:08:19.106	-0.067516
10:08:19.505	-0.067480
10:08:19.806	-0.067464
10:08:20.206	-0.067337
10:08:20.505	-0.067290
10:08:20.906	-0.067284
10:08:21.207	-0.067073
10:08:21.606	-0.066962
10:08:21.905	-0.066648
10:08:22.306	-0.066245
10:08:22.706	-0.065464
10:08:23.006	-0.064612
10:08:23.406	-0.063209
10:08:23.706	-0.062429
10:08:24.106	-0.060663
10:08:24.406	-0.058530
10:08:24.806	-0.055787
10:08:25.106	-0.054186
10:08:25.506	-0.050818
10:08:25.806	-0.047020
10:08:26.206	-0.043421
10:08:26.506	-0.041125
10:08:26.906	-0.037300
10:08:27.207	-0.035059
10:08:27.606	-0.033295
10:08:27.906	-0.032723
10:08:28.306	-0.033688
10:08:28.606	-0.035777
10:08:29.005	-0.037831
10:08:29.306	-0.041577
10:08:29.705	-0.045593
10:08:30.006	-0.047769
10:08:30.406	-0.051646
10:08:30.706	-0.054336
10:08:31.106	-0.057024
10:08:31.406	-0.057730
10:08:31.806	-0.059326
10:08:32.107	-0.060347
10:08:32.506	-0.061401
10:08:32.807	-0.061802
10:08:33.206	-0.062762
10:08:33.506	-0.063666
10:08:33.906	-0.064336
10:08:34.206	-0.064679
10:08:34.606	-0.065436
10:08:34.906	-0.065792
10:08:35.306	-0.066327
10:08:35.606	-0.066507
10:08:36.006	-0.066656
10:08:36.307	-0.066886
10:08:36.706	-0.067039
10:08:37.006	-0.067036
10:08:37.406	-0.067017
10:08:37.706	-0.067012
10:08:38.106	-0.067028
10:08:38.405	-0.067089
10:08:38.806	-0.067024
10:08:39.106	-0.067018
10:08:39.506	-0.067055
10:08:39.807	-0.067077
10:08:40.205	-0.066978
10:08:40.606	-0.066889
10:08:40.906	-0.066784
10:08:41.306	-0.066636
10:08:41.606	-0.066447
10:08:42.005	-0.066218
10:08:42.306	-0.066091
10:08:42.706	-0.065928
10:08:43.006	-0.065780
10:08:43.406	-0.065525
10:08:43.806	-0.065450
10:08:44.106	-0.065373
10:08:44.506	-0.065376
10:08:44.806	-0.065520
10:08:45.206	-0.065709
10:08:45.506	-0.065769
10:08:45.906	-0.065996
10:08:46.206	-0.066106
10:08:46.606	-0.066383
10:08:46.906	-0.066637
10:08:47.306	-0.066927
10:08:47.606	-0.067035
10:08:48.006	-0.067093
10:08:48.306	-0.067285
10:08:48.706	-0.067515
10:08:49.007	-0.067575
10:08:49.406	-0.067634
10:08:49.706	-0.067668
10:08:50.106	-0.067814
10:08:50.406	-0.067895
10:08:50.805	-0.067909
10:08:51.106	-0.067924
10:08:51.506	-0.067934
10:08:51.906	-0.068084
10:08:52.206	-0.068175
10:08:52.606	-0.068173
10:08:52.906	-0.068256
10:08:53.306	-0.068256
10:08:53.606	-0.068260
10:08:54.006	-0.068209
10:08:54.306	-0.068232
10:08:54.706	-0.068254
10:08:55.006	-0.068338
10:08:55.406	-0.068301
10:08:55.706	-0.068343
10:08:56.106	-0.068385
10:08:56.406	-0.068374
10:08:56.806	-0.068376
10:08:57.106	-0.068380
10:08:57.406	-0.068332
10:08:57.806	-0.068387
10:08:58.106	-0.068393
10:08:58.506	-0.068409
10:08:58.806	-0.068377
10:08:59.206	-0.068291
10:08:59.506	-0.068441
10:08:59.906	-0.068393
10:09:00.206	-0.068364
10:09:00.606	-0.068310
10:09:00.906	-0.068400
10:09:01.306	-0.068346
10:09:01.606	-0.068392
10:09:02.006	-0.068436
10:09:02.306	-0.068425
10:09:02.705	-0.068434
10:09:03.007	-0.068456
10:09:03.406	-0.068419
10:09:03.705	-0.068472
10:09:04.106	-0.068512
10:09:04.406	-0.068518
10:09:04.806	-0.068439
10:09:05.106	-0.068491
10:09:05.506	-0.068512
10:09:05.806	-0.068524
10:09:06.206	-0.068492
10:09:06.506	-0.068475
10:09:06.906	-0.068437
10:09:07.206	-0.068515
10:09:07.606	-0.068482
10:09:07.906	-0.068513
10:09:08.306	-0.068509
10:09:08.606	-0.068463
10:09:09.006	-0.068533
10:09:09.306	-0.068541
10:09:09.706	-0.068546
10:09:10.006	-0.068530
10:09:10.406	-0.068503
10:09:10.706	-0.068515
10:09:11.106	-0.068567
10:09:11.406	-0.068473
10:09:11.806	-0.068506
10:09:12.106	-0.068488
10:09:12.506	-0.068456
10:09:12.807	-0.068468
10:09:13.206	-0.068486
10:09:13.506	-0.068476
10:09:13.906	-0.068494
10:09:14.206	-0.068525
10:09:14.606	-0.068504
10:09:14.906	-0.068497
10:09:15.306	-0.068518
10:09:15.606	-0.068499
10:09:16.006	-0.068512
10:09:16.306	-0.068537
10:09:16.706	-0.068537
10:09:17.006	-0.068536
10:09:17.406	-0.068473
10:09:17.706	-0.068495
10:09:18.106	-0.068538
10:09:18.506	-0.068558
10:09:18.806	-0.068502
10:09:19.206	-0.068551
10:09:19.506	-0.068559
10:09:19.906	-0.068552
10:09:20.206	-0.068536
10:09:20.606	-0.068548
10:09:20.906	-0.068500
10:09:21.306	-0.068555
10:09:21.606	-0.068560
10:09:22.006	-0.068548
10:09:22.306	-0.068590
10:09:22.707	-0.068568
10:09:23.006	-0.068596
10:09:23.407	-0.068604
10:09:23.706	-0.068685
10:09:24.106	-0.068544
10:09:24.406	-0.068639
10:09:24.806	-0.068618
10:09:25.106	-0.068620
10:09:25.506	-0.068623
10:09:25.806	-0.068600
10:09:26.206	-0.068565
10:09:26.506	-0.068548
10:09:26.906	-0.068529
10:09:27.207	-0.068622
10:09:27.507	-0.068605
10:09:27.906	-0.068612
10:09:28.206	-0.068527
10:09:28.606	-0.068582
10:09:28.906	-0.068566
10:09:29.307	-0.068549
10:09:29.606	-0.068545
10:09:30.006	-0.068601
10:09:30.306	-0.068613
10:09:30.706	-0.068683
10:09:31.006	-0.068630
10:09:31.406	-0.068618
10:09:31.706	-0.068600
10:09:32.106	-0.068649
10:09:32.407	-0.068642
10:09:32.806	-0.068601
10:09:33.106	-0.068665
10:09:33.506	-0.068725
10:09:33.806	-0.068710
10:09:34.206	-0.068683
10:09:34.506	-0.068678
10:09:34.906	-0.068678
10:09:35.206	-0.068685
10:09:35.606	-0.068718
10:09:35.907	-0.068753
10:09:36.306	-0.068722
10:09:36.606	-0.068725
10:09:37.006	-0.068719
10:09:37.306	-0.068696
10:09:37.706	-0.068720
10:09:38.007	-0.068727
10:09:38.406	-0.068749
10:09:38.706	-0.068727
10:09:39.106	-0.068755
10:09:39.406	-0.068738
10:09:39.806	-0.068744
10:09:40.106	-0.068752
10:09:40.506	-0.068763
10:09:40.806	-0.068743
10:09:41.206	-0.068704
10:09:41.506	-0.068742
10:09:41.906	-0.068753
10:09:42.206	-0.068713
10:09:42.606	-0.068738
10:09:42.907	-0.068722
10:09:43.306	-0.068692
10:09:43.606	-0.068688
10:09:44.006	-0.068746
10:09:44.306	-0.068763
10:09:44.706	-0.068731
10:09:45.006	-0.068755
10:09:45.406	-0.068768
10:09:45.707	-0.068718
10:09:46.106	-0.068752
10:09:46.406	-0.068800
10:09:46.806	-0.068762
10:09:47.106	-0.068788
10:09:47.506	-0.068706
10:09:47.806	-0.068721
10:09:48.206	-0.068734
10:09:48.506	-0.068734
10:09:48.906	-0.068724
10:09:49.206	-0.068697
10:09:49.607	-0.068737
10:09:49.906	-0.068796
10:09:50.306	-0.068722
10:09:50.606	-0.068770
10:09:51.006	-0.068774
10:09:51.306	-0.068737
10:09:51.706	-0.068708
10:09:52.006	-0.068715
10:09:52.406	-0.068728
10:09:52.707	-0.068757
10:09:53.106	-0.068784
10:09:53.406	-0.068727
10:09:53.807	-0.068757
10:09:54.106	-0.068776
10:09:54.507	-0.068709
10:09:54.806	-0.068690
10:09:55.207	-0.068721
10:09:55.507	-0.068711
10:09:55.906	-0.068669
10:09:56.206	-0.068681
10:09:56.506	-0.068675
10:09:56.907	-0.068696
10:09:57.207	-0.068758
10:09:57.606	-0.068668
10:09:57.906	-0.068689
10:09:58.306	-0.068727
10:09:58.606	-0.068656
10:09:59.007	-0.068639
10:09:59.307	-0.068625
10:09:59.706	-0.068655
10:10:00.007	-0.068690
10:10:00.406	-0.068639
10:10:00.706	-0.068680
10:10:01.106	-0.068685
10:10:01.406	-0.068642
10:10:01.806	-0.068642
10:10:02.106	-0.068694
10:10:02.507	-0.068655
10:10:02.806	-0.068610
10:10:03.206	-0.068625
10:10:03.506	-0.068630
10:10:03.907	-0.068609
10:10:04.206	-0.068630
10:10:04.606	-0.068643
10:10:04.907	-0.068615
10:10:05.306	-0.068630
10:10:05.606	-0.068651
10:10:06.007	-0.068667
10:10:06.306	-0.068653
10:10:06.706	-0.068669
10:10:07.007	-0.068672
10:10:07.407	-0.068664
10:10:07.706	-0.068614
10:10:08.107	-0.068674
10:10:08.407	-0.068668
10:10:08.807	-0.068697
10:10:09.106	-0.068689
10:10:09.506	-0.068638
10:10:09.806	-0.068605
10:10:10.207	-0.068610
10:10:10.506	-0.068611
10:10:10.906	-0.068605
10:10:11.207	-0.068663
10:10:11.607	-0.068647
10:10:11.907	-0.068635
10:10:12.307	-0.068665
10:10:12.607	-0.068665
10:10:13.006	-0.068619
10:10:13.307	-0.068616
10:10:13.707	-0.068631
10:10:14.007	-0.068656
10:10:14.407	-0.068643
10:10:14.707	-0.068638
10:10:15.107	-0.068604
10:10:15.406	-0.068637
10:10:15.807	-0.068618
10:10:16.106	-0.068591
10:10:16.506	-0.068601
10:10:16.807	-0.068547
10:10:17.206	-0.068470
10:10:17.507	-0.068523
10:10:17.907	-0.068479
10:10:18.206	-0.068498
10:10:18.606	-0.068415
10:10:18.907	-0.068450
10:10:19.306	-0.068426
10:10:19.606	-0.068485
10:10:20.006	-0.068395
10:10:20.307	-0.068400
10:10:20.707	-0.068345
10:10:21.006	-0.068389
10:10:21.407	-0.068379
10:10:21.706	-0.068388
10:10:22.107	-0.068466
10:10:22.406	-0.068409
10:10:22.807	-0.068362
10:10:23.106	-0.068365
10:10:23.506	-0.068345
10:10:23.806	-0.068258
10:10:24.206	-0.068277
10:10:24.506	-0.068263
10:10:24.907	-0.068204
10:10:25.207	-0.068172
10:10:25.606	-0.068106
10:10:25.906	-0.068025
10:10:26.307	-0.068040
10:10:26.607	-0.068000
10:10:27.006	-0.067894
10:10:27.306	-0.067872
10:10:27.706	-0.067868
10:10:28.007	-0.067703
10:10:28.406	-0.067534
10:10:28.707	-0.067516
10:10:29.107	-0.067428
10:10:29.407	-0.067362
10:10:29.806	-0.067290
10:10:30.107	-0.067079
10:10:30.507	-0.067077
10:10:30.807	-0.067025
10:10:31.206	-0.066944
10:10:31.507	-0.066855
10:10:31.907	-0.066679
10:10:32.208	-0.066613
10:10:32.607	-0.066609
10:10:32.906	-0.066431
10:10:33.308	-0.066284
10:10:33.606	-0.066361
10:10:34.007	-0.066103
10:10:34.307	-0.066166
10:10:34.707	-0.065939
10:10:35.006	-0.065855
10:10:35.406	-0.065872
10:10:35.707	-0.065669
10:10:36.107	-0.065681
10:10:36.406	-0.065659
10:10:36.807	-0.065510
10:10:37.107	-0.065730
10:10:37.507	-0.065791
10:10:37.807	-0.065808
10:10:38.207	-0.066011
10:10:38.507	-0.066265
10:10:38.906	-0.066591
10:10:39.206	-0.066737
10:10:39.607	-0.067036
10:10:39.907	-0.067131
10:10:40.306	-0.067298
10:10:40.606	-0.067545
10:10:41.006	-0.067651
10:10:41.407	-0.067773
10:10:41.706	-0.067834
10:10:42.107	-0.067918
10:10:42.406	-0.068038
10:10:42.808	-0.068156
10:10:43.106	-0.068196
10:10:43.507	-0.068309
10:10:43.807	-0.068346
10:10:44.206	-0.068417
10:10:44.507	-0.068332
10:10:44.907	-0.068328
10:10:45.207	-0.068430
10:10:45.607	-0.068385
10:10:45.906	-0.068444
10:10:46.307	-0.068366
10:10:46.607	-0.068324
10:10:47.006	-0.068189
10:10:47.307	-0.068144
10:10:47.706	-0.068054
10:10:48.007	-0.067951
10:10:48.407	-0.067754
10:10:48.707	-0.067596
10:10:49.107	-0.067343
10:10:49.406	-0.067273
10:10:49.807	-0.066956
10:10:50.106	-0.066615
10:10:50.507	-0.066321
10:10:50.807	-0.066158
10:10:51.206	-0.065661
10:10:51.507	-0.065317
10:10:51.907	-0.064493
10:10:52.207	-0.063808
10:10:52.607	-0.063468
10:10:52.906	-0.062648
10:10:53.306	-0.061489
10:10:53.607	-0.060253
10:10:54.007	-0.059345
10:10:54.307	-0.058297
10:10:54.706	-0.056544
10:10:55.007	-0.054678
10:10:55.407	-0.052785
10:10:55.707	-0.051656
10:10:56.107	-0.049493
10:10:56.407	-0.048391
10:10:56.806	-0.047196
10:10:57.107	-0.047211
10:10:57.507	-0.046555
10:10:57.807	-0.047473
10:10:58.207	-0.048500
10:10:58.507	-0.049285
10:10:58.907	-0.050677
10:10:59.207	-0.052357
10:10:59.607	-0.054273
10:10:59.906	-0.055129
10:11:00.307	-0.056915
10:11:00.606	-0.057997
10:11:01.007	-0.059480
10:11:01.307	-0.060546
10:11:01.706	-0.061526
10:11:02.007	-0.061821
10:11:02.406	-0.062664
10:11:02.706	-0.063644
10:11:03.107	-0.064213
10:11:03.407	-0.064688
10:11:03.808	-0.065261
10:11:04.107	-0.065713
10:11:04.507	-0.066270
10:11:04.807	-0.066425
10:11:05.207	-0.066852
10:11:05.506	-0.067102
10:11:05.907	-0.067412
10:11:06.207	-0.067505
10:11:06.607	-0.067690
10:11:06.906	-0.067854
10:11:07.306	-0.067966
10:11:07.607	-0.068009
10:11:08.007	-0.068029
10:11:08.308	-0.068167
10:11:08.706	-0.068195
10:11:09.007	-0.068186
10:11:09.406	-0.068280
10:11:09.707	-0.068343
10:11:10.107	-0.068382
10:11:10.407	-0.068372
10:11:10.807	-0.068430
10:11:11.107	-0.068450
10:11:11.507	-0.068451
10:11:11.807	-0.068462
10:11:12.207	-0.068521
10:11:12.507	-0.068502
10:11:12.907	-0.068501
10:11:13.207	-0.068586
10:11:13.607	-0.068596
10:11:13.906	-0.068633
10:11:14.307	-0.068566
10:11:14.607	-0.068628
10:11:15.007	-0.068633
10:11:15.307	-0.068659
10:11:15.707	-0.068672
10:11:16.007	-0.068636
10:11:16.407	-0.068661
10:11:16.707	-0.068663
10:11:17.107	-0.068666
10:11:17.407	-0.068710
10:11:17.806	-0.068666
10:11:18.107	-0.068727
10:11:18.506	-0.068762
10:11:18.807	-0.068732
10:11:19.206	-0.068735
10:11:19.507	-0.068745
10:11:19.907	-0.068749
10:11:20.207	-0.068737
10:11:20.606	-0.068737
10:11:20.907	-0.068683
10:11:21.307	-0.068762
10:11:21.607	-0.068781
10:11:22.007	-0.068711
10:11:22.307	-0.068727
10:11:22.707	-0.068743
10:11:23.007	-0.068794
10:11:23.406	-0.068717
10:11:23.707	-0.068726
10:11:24.107	-0.068773
10:11:24.407	-0.068770
10:11:24.807	-0.068748
10:11:25.106	-0.068782
10:11:25.507	-0.068761
10:11:25.807	-0.068774
10:11:26.207	-0.068786
10:11:26.507	-0.068846
10:11:26.907	-0.068788
10:11:27.207	-0.068787
10:11:27.607	-0.068836
10:11:27.906	-0.068788
10:11:28.307	-0.068822
10:11:28.607	-0.068821
10:11:29.007	-0.068806
10:11:29.308	-0.068849
10:11:29.707	-0.068800
10:11:30.007	-0.068798
10:11:30.407	-0.068843
10:11:30.708	-0.068831
10:11:31.107	-0.068844
10:11:31.407	-0.068820
10:11:31.807	-0.068864
10:11:32.107	-0.068846
10:11:32.507	-0.068872
10:11:32.807	-0.068872
10:11:33.207	-0.068870
10:11:33.507	-0.068794
10:11:33.907	-0.068821
10:11:34.207	-0.068890
10:11:34.607	-0.068865
10:11:34.907	-0.068842
10:11:35.307	-0.068880
10:11:35.607	-0.068864
10:11:36.006	-0.068813
10:11:36.307	-0.068873
10:11:36.706	-0.068852
10:11:37.007	-0.068852
10:11:37.407	-0.068901
10:11:37.707	-0.068892
10:11:38.107	-0.068828
10:11:38.407	-0.068841
10:11:38.806	-0.068830
10:11:39.106	-0.068802
10:11:39.507	-0.068863
10:11:39.807	-0.068908
10:11:40.207	-0.068913
10:11:40.507	-0.068892
10:11:40.907	-0.068870
10:11:41.207	-0.068806
10:11:41.607	-0.068810
10:11:41.907	-0.068858
10:11:42.307	-0.068890
10:11:42.607	-0.068843
10:11:43.007	-0.068832
10:11:43.307	-0.068795
10:11:43.707	-0.068891
10:11:44.007	-0.068863
10:11:44.407	-0.068890
10:11:44.707	-0.068884
10:11:45.107	-0.068841
10:11:45.407	-0.068869
10:11:45.807	-0.068846
10:11:46.107	-0.068852
10:11:46.507	-0.068914
10:11:46.907	-0.068869
10:11:47.207	-0.068872
10:11:47.607	-0.068873
10:11:47.907	-0.068916
10:11:48.307	-0.068895
10:11:48.607	-0.068902
10:11:49.007	-0.068948
10:11:49.307	-0.068911
10:11:49.707	-0.068905
10:11:50.007	-0.068905
10:11:50.406	-0.068920
10:11:50.707	-0.068938
10:11:51.107	-0.068908
10:11:51.407	-0.068892
10:11:51.807	-0.068939
10:11:52.107	-0.068898
10:11:52.507	-0.068928
10:11:52.807	-0.068909
10:11:53.207	-0.068949
10:11:53.508	-0.068945
10:11:53.907	-0.068975
10:11:54.207	-0.068967
10:11:54.608	-0.069008
10:11:54.907	-0.068977
10:11:55.308	-0.069009
10:11:55.607	-0.068970
10:11:56.007	-0.068958
10:11:56.307	-0.068964
10:11:56.707	-0.068951
10:11:57.007	-0.068938
10:11:57.407	-0.068948
10:11:57.707	-0.068920
10:11:58.107	-0.068983
10:11:58.407	-0.068912
10:11:58.807	-0.068943
10:11:59.107	-0.068992
10:11:59.507	-0.068957
10:11:59.907	-0.069020
10:12:00.207	-0.068977
10:12:00.607	-0.068915
10:12:00.907	-0.068947
10:12:01.307	-0.068920
10:12:01.607	-0.068935
10:12:02.007	-0.068964
10:12:02.307	-0.068943
10:12:02.707	-0.068925
10:12:03.007	-0.068918
10:12:03.407	-0.068934
10:12:03.707	-0.068953
10:12:04.107	-0.068939
10:12:04.407	-0.068969
10:12:04.807	-0.068949
10:12:05.107	-0.068955
10:12:05.506	-0.068939
10:12:05.807	-0.068956
10:12:06.207	-0.068970
10:12:06.507	-0.068950
10:12:06.907	-0.068983
10:12:07.207	-0.068961
10:12:07.606	-0.068921
10:12:07.907	-0.068908
10:12:08.307	-0.068924
10:12:08.607	-0.069000
10:12:09.007	-0.068951
10:12:09.307	-0.068920
10:12:09.707	-0.068949
10:12:10.007	-0.068916
10:12:10.408	-0.068936
10:12:10.707	-0.068940
10:12:11.107	-0.068946
10:12:11.407	-0.068941
10:12:11.807	-0.068903
10:12:12.107	-0.068904
10:12:12.507	-0.068974
10:12:12.807	-0.068896
10:12:13.207	-0.068970
10:12:13.507	-0.068901
10:12:13.907	-0.068970
10:12:14.207	-0.068934
10:12:14.607	-0.068961
10:12:14.907	-0.068929
10:12:15.307	-0.068951
10:12:15.607	-0.069013
10:12:16.007	-0.068976
10:12:16.307	-0.068961
10:12:16.707	-0.068976
10:12:17.007	-0.068982
10:12:17.407	-0.068977
10:12:17.708	-0.068969
10:12:18.107	-0.068936
10:12:18.407	-0.068934
10:12:18.807	-0.068994
10:12:19.107	-0.068991
10:12:19.507	-0.068958
10:12:19.807	-0.068931
10:12:20.207	-0.068993
10:12:20.507	-0.068967
10:12:20.907	-0.068931
10:12:21.207	-0.068974
10:12:21.607	-0.068972
10:12:21.907	-0.068971
10:12:22.307	-0.068970
10:12:22.608	-0.068980
10:12:23.007	-0.068922
10:12:23.307	-0.068932
10:12:23.707	-0.068936
10:12:24.007	-0.068942
10:12:24.407	-0.068946
10:12:24.707	-0.068948
10:12:25.107	-0.068978
10:12:25.407	-0.068971
10:12:25.807	-0.068934
10:12:26.108	-0.068961
10:12:26.507	-0.068942
10:12:26.807	-0.068972
10:12:27.207	-0.068939
10:12:27.507	-0.068959
10:12:27.907	-0.068914
10:12:28.207	-0.068946
10:12:28.607	-0.068942
10:12:28.907	-0.068973
10:12:29.307	-0.068932
10:12:29.607	-0.068986
10:12:30.007	-0.068925
10:12:30.307	-0.068951
10:12:30.707	-0.068971
10:12:31.008	-0.068931
10:12:31.407	-0.068971
10:12:31.707	-0.068923
10:12:32.107	-0.068908
10:12:32.408	-0.068949
10:12:32.807	-0.068949
10:12:33.107	-0.068952
10:12:33.507	-0.068922
10:12:33.807	-0.068933
10:12:34.207	-0.068928
10:12:34.507	-0.068926
10:12:34.907	-0.068888
10:12:35.207	-0.068893
10:12:35.607	-0.068864
10:12:35.907	-0.068870
10:12:36.307	-0.068890
10:12:36.607	-0.068924
10:12:37.007	-0.068966
10:12:37.307	-0.068936
10:12:37.707	-0.068966
10:12:38.007	-0.068954
10:12:38.407	-0.068944
10:12:38.707	-0.068946
10:12:39.107	-0.068969
10:12:39.407	-0.068941
10:12:39.807	-0.068936
10:12:40.107	-0.068950
10:12:40.507	-0.068923
10:12:40.807	-0.068953
10:12:41.207	-0.068936
10:12:41.507	-0.068939
10:12:41.907	-0.068885
10:12:42.307	-0.068913
10:12:42.607	-0.068932
10:12:43.007	-0.068902
10:12:43.307	-0.068908
10:12:43.708	-0.068925
10:12:44.007	-0.068961
10:12:44.407	-0.068939
10:12:44.707	-0.068954
10:12:45.107	-0.068939
10:12:45.407	-0.068898
10:12:45.807	-0.068921
10:12:46.107	-0.068944
10:12:46.507	-0.068939
10:12:46.807	-0.068923
10:12:47.207	-0.068941
10:12:47.507	-0.068944
10:12:47.907	-0.068933
10:12:48.207	-0.068928
10:12:48.608	-0.068913
10:12:48.907	-0.068943
10:12:49.307	-0.068928
10:12:49.608	-0.068915
10:12:50.007	-0.068973
10:12:50.307	-0.068966
10:12:50.707	-0.068957
10:12:51.007	-0.068938
10:12:51.407	-0.068966
10:12:51.708	-0.068940
10:12:52.107	-0.068976
10:12:52.407	-0.068978
10:12:52.807	-0.068962
10:12:53.108	-0.068904
10:12:53.508	-0.068929
10:12:53.807	-0.068942
10:12:54.208	-0.068969
10:12:54.508	-0.068940
10:12:54.907	-0.068928
10:12:55.207	-0.068977
10:12:55.607	-0.068984
10:12:55.908	-0.068938
10:12:56.308	-0.068952
10:12:56.607	-0.068960
10:12:57.007	-0.068906
10:12:57.308	-0.068913
10:12:57.707	-0.068955
10:12:58.007	-0.068956
10:12:58.407	-0.068945
10:12:58.708	-0.068956
10:12:59.107	-0.068968
10:12:59.407	-0.068932
10:12:59.708	-0.068910
10:13:00.108	-0.068933
10:13:00.407	-0.068954
10:13:00.807	-0.068947
10:13:01.107	-0.068975
10:13:01.507	-0.068952
10:13:01.807	-0.068915
10:13:02.207	-0.068919
10:13:02.507	-0.068944
10:13:02.907	-0.068946
10:13:03.207	-0.068941
10:13:03.607	-0.068927
10:13:03.907	-0.068971
10:13:04.307	-0.068994
10:13:04.607	-0.068978
10:13:05.007	-0.068939
10:13:05.307	-0.068917
10:13:05.707	-0.068932
10:13:06.008	-0.068917
10:13:06.407	-0.068945
10:13:06.707	-0.068893
10:13:07.107	-0.068990
10:13:07.407	-0.068993
10:13:07.808	-0.068960
10:13:08.108	-0.068941
10:13:08.507	-0.068915
10:13:08.807	-0.068944
10:13:09.208	-0.068964
10:13:09.509	-0.068909
10:13:09.907	-0.068914
10:13:10.207	-0.068959
10:13:10.607	-0.068991
10:13:10.907	-0.068981
10:13:11.308	-0.068951
10:13:11.607	-0.068972
10:13:12.008	-0.068977
10:13:12.308	-0.068929
10:13:12.708	-0.068952
10:13:13.007	-0.068920
10:13:13.408	-0.068947
10:13:13.707	-0.068977
10:13:14.107	-0.068950
10:13:14.407	-0.068891
10:13:14.807	-0.068987
10:13:15.107	-0.068947
10:13:15.508	-0.068905
10:13:15.807	-0.068920
10:13:16.207	-0.068899
10:13:16.507	-0.068890
10:13:16.908	-0.068904
10:13:17.207	-0.068906
10:13:17.607	-0.068988
10:13:17.908	-0.068899
10:13:18.308	-0.068892
10:13:18.607	-0.068972
10:13:19.007	-0.068945
10:13:19.308	-0.068959
10:13:19.707	-0.068929
10:13:20.008	-0.068930
10:13:20.407	-0.068958
10:13:20.707	-0.068930
10:13:21.107	-0.068915
10:13:21.408	-0.068921
10:13:21.808	-0.068926
10:13:22.107	-0.068957
10:13:22.507	-0.068903
10:13:22.807	-0.068946
10:13:23.207	-0.068958
10:13:23.507	-0.068945
10:13:23.907	-0.068935
10:13:24.208	-0.068965
10:13:24.607	-0.068943
10:13:24.907	-0.068999
10:13:25.308	-0.068938
10:13:25.608	-0.068956
10:13:26.008	-0.068982
10:13:26.307	-0.068881
10:13:26.708	-0.068941
10:13:27.008	-0.068985
10:13:27.408	-0.068961
10:13:27.707	-0.068927
10:13:28.107	-0.068950
10:13:28.408	-0.068968
10:13:28.807	-0.068989
10:13:29.108	-0.068975
10:13:29.508	-0.068966
10:13:29.807	-0.068976
10:13:30.208	-0.068929
10:13:30.508	-0.068930
10:13:30.907	-0.068987
10:13:31.208	-0.068942
10:13:31.608	-0.068995
10:13:31.907	-0.069016
10:13:32.307	-0.068970
10:13:32.608	-0.069000
10:13:33.007	-0.068976
10:13:33.307	-0.068966
10:13:33.707	-0.068995
10:13:34.008	-0.068938
10:13:34.407	-0.068958
10:13:34.707	-0.068974
10:13:35.107	-0.068970
10:13:35.407	-0.068985
10:13:35.808	-0.068962
10:13:36.107	-0.068961
10:13:36.508	-0.068970
10:13:36.807	-0.068967
10:13:37.207	-0.068925
10:13:37.508	-0.068958
10:13:37.908	-0.068950
10:13:38.208	-0.068927
10:13:38.607	-0.068941
10:13:38.907	-0.068943
10:13:39.308	-0.068944
10:13:39.607	-0.068939
10:13:40.008	-0.068930
10:13:40.308	-0.068943
10:13:40.707	-0.068940
10:13:41.008	-0.068957
10:13:41.407	-0.068942
10:13:41.707	-0.068920
10:13:42.107	-0.068932
10:13:42.408	-0.068968
10:13:42.808	-0.068979
10:13:43.108	-0.068947
10:13:43.507	-0.069020
10:13:43.808	-0.069007
10:13:44.108	-0.069009
10:13:44.507	-0.068959
10:13:44.808	-0.068967
10:13:45.208	-0.068983
10:13:45.508	-0.068975
10:13:45.908	-0.068983
10:13:46.208	-0.068978
10:13:46.608	-0.068979
10:13:46.907	-0.069002
10:13:47.307	-0.068993
10:13:47.608	-0.068976
10:13:48.007	-0.068991
10:13:48.307	-0.069021
10:13:48.708	-0.068946
10:13:49.008	-0.068946
10:13:49.407	-0.068937
10:13:49.708	-0.068985
10:13:50.107	-0.069009
10:13:50.407	-0.068989
10:13:50.807	-0.068993
10:13:51.107	-0.068996
10:13:51.508	-0.068994
10:13:51.807	-0.069004
10:13:52.207	-0.069005
10:13:52.508	-0.068966
10:13:52.908	-0.068980
10:13:53.207	-0.068988
10:13:53.608	-0.068979
10:13:53.908	-0.068987
10:13:54.308	-0.068923
10:13:54.608	-0.068972
10:13:55.009	-0.068980
10:13:55.308	-0.068973
10:13:55.708	-0.068963
10:13:56.009	-0.068981
10:13:56.408	-0.068961
10:13:56.708	-0.068985
10:13:57.108	-0.068927
10:13:57.408	-0.068950
10:13:57.808	-0.069035
10:13:58.108	-0.068991
10:13:58.509	-0.068959
10:13:58.808	-0.068955
10:13:59.207	-0.068952
10:13:59.507	-0.068935
10:13:59.908	-0.068970
10:14:00.208	-0.069052
10:14:00.608	-0.068972
10:14:00.908	-0.069009
10:14:01.308	-0.069005
10:14:01.608	-0.068965
10:14:02.008	-0.068959
10:14:02.307	-0.068935
10:14:02.708	-0.068985
10:14:03.007	-0.068959
10:14:03.407	-0.068992
10:14:03.708	-0.068943
10:14:04.107	-0.068988
10:14:04.408	-0.068964
10:14:04.808	-0.068964
10:14:05.108	-0.068951
10:14:05.507	-0.068961
10:14:05.808	-0.068991
10:14:06.207	-0.069012
10:14:06.508	-0.068939
10:14:06.907	-0.068979
10:14:07.207	-0.069014
10:14:07.608	-0.068988
10:14:07.907	-0.068987
10:14:08.308	-0.068995
10:14:08.608	-0.069021
10:14:09.008	-0.068922
10:14:09.307	-0.068982
10:14:09.609	-0.068926
10:14:10.008	-0.068960
10:14:10.308	-0.068987
10:14:10.708	-0.068927
10:14:11.007	-0.068917
10:14:11.408	-0.068922
10:14:11.707	-0.068909
10:14:12.108	-0.069005
10:14:12.408	-0.068978
10:14:12.808	-0.068920
10:14:13.108	-0.068913
10:14:13.508	-0.068976
10:14:13.808	-0.068908
10:14:14.208	-0.068935
10:14:14.509	-0.068930
10:14:14.908	-0.068962
10:14:15.207	-0.068958
10:14:15.608	-0.068917
10:14:15.908	-0.068947
10:14:16.308	-0.068978
10:14:16.608	-0.068937
10:14:17.008	-0.068936
10:14:17.307	-0.068914
10:14:17.708	-0.068940
10:14:18.007	-0.068943
10:14:18.408	-0.068903
10:14:18.707	-0.068956
10:14:19.108	-0.068917
10:14:19.408	-0.068906
10:14:19.808	-0.068948
10:14:20.107	-0.068945
10:14:20.507	-0.068888
10:14:20.808	-0.068880
10:14:21.208	-0.068917
10:14:21.508	-0.068885
10:14:21.907	-0.068891
10:14:22.208	-0.068922
10:14:22.608	-0.068919
10:14:22.908	-0.068870
10:14:23.308	-0.068860
10:14:23.608	-0.068875
10:14:24.008	-0.068910
10:14:24.308	-0.068861
10:14:24.708	-0.068815
10:14:25.008	-0.068801
10:14:25.408	-0.068804
10:14:25.708	-0.068814
10:14:26.108	-0.068758
10:14:26.408	-0.068897
10:14:26.807	-0.068816
10:14:27.108	-0.068853
10:14:27.407	-0.068819
10:14:27.808	-0.068809
10:14:28.108	-0.068852
10:14:28.508	-0.068831
10:14:28.808	-0.068814
10:14:29.208	-0.068792
10:14:29.508	-0.068783
10:14:29.908	-0.068819
10:14:30.208	-0.068836
10:14:30.608	-0.068840
10:14:30.908	-0.068869
10:14:31.307	-0.068828
10:14:31.608	-0.068859
10:14:32.008	-0.068848
10:14:32.308	-0.068806
10:14:32.608	-0.068826
10:14:33.008	-0.068844
10:14:33.308	-0.068868
10:14:33.707	-0.068829
10:14:34.008	-0.068834
10:14:34.408	-0.068785
10:14:34.708	-0.068807
10:14:35.108	-0.068865
10:14:35.408	-0.068854
10:14:35.808	-0.068891
10:14:36.108	-0.068834
10:14:36.508	-0.068871
10:14:36.908	-0.068838
10:14:37.207	-0.068796
10:14:37.608	-0.068837
10:14:37.908	-0.068816
10:14:38.308	-0.068858
10:14:38.608	-0.068826
10:14:39.009	-0.068909
10:14:39.308	-0.068851
10:14:39.708	-0.068887
10:14:40.008	-0.068849
10:14:40.408	-0.068823
10:14:40.708	-0.068831
10:14:41.109	-0.068821
10:14:41.408	-0.068810
10:14:41.808	-0.068828
10:14:42.108	-0.068813
10:14:42.508	-0.068799
10:14:42.808	-0.068729
10:14:43.208	-0.068784
10:14:43.508	-0.068803
10:14:43.908	-0.068787
10:14:44.208	-0.068823
10:14:44.608	-0.068787
10:14:44.908	-0.068818
10:14:45.308	-0.068848
10:14:45.608	-0.068729
10:14:46.008	-0.068805
10:14:46.308	-0.068845
10:14:46.708	-0.068822
10:14:47.007	-0.068917
10:14:47.408	-0.068789