Chart Recorder Data File Fri, Sep 13, 2024 11:22 AM
Time (s)	CH1 (V)  
11:18:05.029	-0.068319
11:18:05.928	-0.068557
11:18:06.228	-0.068499
11:18:06.528	-0.068578
11:18:06.928	-0.068468
11:18:07.228	-0.068382
11:18:07.628	-0.068569
11:18:07.928	-0.068541
11:18:08.328	-0.068534
11:18:08.629	-0.068291
11:18:09.028	-0.068514
11:18:09.329	-0.068322
11:18:09.628	-0.068244
11:18:10.028	-0.068451
11:18:10.328	-0.068128
11:18:10.729	-0.068142
11:18:11.029	-0.068301
11:18:11.429	-0.068657
11:18:11.728	-0.068385
11:18:12.128	-0.068312
11:18:12.429	-0.068252
11:18:12.829	-0.068324
11:18:13.129	-0.068276
11:18:13.428	-0.068363
11:18:13.828	-0.068288
11:18:14.128	-0.068438
11:18:14.529	-0.068265
11:18:14.828	-0.068276
11:18:15.229	-0.068366
11:18:15.529	-0.068300
11:18:15.929	-0.068327
11:18:16.229	-0.068585
11:18:16.628	-0.068352
11:18:16.929	-0.068139
11:18:17.328	-0.068332
11:18:17.629	-0.068337
11:18:18.029	-0.068338
11:18:18.328	-0.068212
11:18:18.729	-0.068233
11:18:19.028	-0.068415
11:18:19.429	-0.068224
11:18:19.728	-0.068398
11:18:20.029	-0.068266
11:18:20.428	-0.068404
11:18:20.728	-0.068226
11:18:21.129	-0.068369
11:18:21.428	-0.068403
11:18:21.829	-0.068404
11:18:22.129	-0.068187
11:18:22.429	-0.068100
11:18:22.828	-0.068262
11:18:23.129	-0.068321
11:18:23.528	-0.068174
11:18:23.829	-0.068310
11:18:24.228	-0.068228
11:18:24.528	-0.068199
11:18:24.928	-0.068339
11:18:25.228	-0.068037
11:18:25.628	-0.068031
11:18:25.929	-0.067896
11:18:26.329	-0.068259
11:18:26.628	-0.068398
11:18:27.028	-0.068073
11:18:27.328	-0.068324
11:18:27.628	-0.068356
11:18:28.029	-0.068105
11:18:28.328	-0.068161
11:18:28.728	-0.068243
11:18:29.028	-0.068198
11:18:29.429	-0.068242
11:18:29.729	-0.068196
11:18:30.129	-0.067930
11:18:30.429	-0.068147
11:18:30.828	-0.067921
11:18:31.129	-0.068037
11:18:31.429	-0.068157
11:18:31.828	-0.068019
11:18:32.129	-0.067989
11:18:32.429	-0.068156
11:18:32.828	-0.068234
11:18:33.128	-0.067936
11:18:33.429	-0.068179
11:18:33.829	-0.068208
11:18:34.128	-0.068152
11:18:34.528	-0.067868
11:18:34.829	-0.067863
11:18:35.228	-0.068159
11:18:35.528	-0.067894
11:18:35.929	-0.067993
11:18:36.228	-0.068134
11:18:36.629	-0.067954
11:18:36.929	-0.067997
11:18:37.328	-0.067892
11:18:37.629	-0.067863
11:18:38.028	-0.067920
11:18:38.329	-0.067855
11:18:38.628	-0.067940
11:18:39.028	-0.067860
11:18:39.328	-0.067897
11:18:39.729	-0.067753
11:18:40.029	-0.068055
11:18:40.428	-0.067899
11:18:40.729	-0.067985
11:18:41.129	-0.067866
11:18:41.429	-0.067987
11:18:41.729	-0.067834
11:18:42.128	-0.067879
11:18:42.429	-0.067716
11:18:42.828	-0.067905
11:18:43.128	-0.067783
11:18:43.529	-0.067817
11:18:43.829	-0.067957
11:18:44.228	-0.068078
11:18:44.529	-0.068389
11:18:44.929	-0.067991
11:18:45.229	-0.068128
11:18:45.528	-0.068220
11:18:45.929	-0.068258
11:18:46.229	-0.068287
11:18:46.629	-0.068226
11:18:47.029	-0.068534
11:18:47.329	-0.068571
11:18:47.729	-0.068548
11:18:48.029	-0.068755
11:18:48.429	-0.068807
11:18:48.728	-0.068861
11:18:49.129	-0.068806
11:18:49.429	-0.068933
11:18:49.828	-0.068784
11:18:50.129	-0.068765
11:18:50.528	-0.069047
11:18:50.829	-0.068926
11:18:51.228	-0.068851
11:18:51.529	-0.068995
11:18:51.929	-0.068999
11:18:52.229	-0.068689
11:18:52.629	-0.068955
11:18:52.929	-0.068800
11:18:53.329	-0.068986
11:18:53.628	-0.068876
11:18:53.929	-0.068814
11:18:54.329	-0.068950
11:18:54.629	-0.068715
11:18:55.028	-0.069038
11:18:55.328	-0.068908
11:18:55.728	-0.068967
11:18:56.029	-0.068721
11:18:56.429	-0.068959
11:18:56.729	-0.068838
11:18:57.129	-0.068675
11:18:57.429	-0.068907
11:18:57.829	-0.068702
11:18:58.129	-0.068747
11:18:58.529	-0.068842
11:18:58.829	-0.068818
11:18:59.229	-0.068791
11:18:59.529	-0.068920
11:18:59.929	-0.068743
11:19:00.229	-0.068774
11:19:00.629	-0.068784
11:19:00.928	-0.068908
11:19:01.329	-0.068871
11:19:01.629	-0.068735
11:19:02.029	-0.068887
11:19:02.329	-0.068729
11:19:02.728	-0.068816
11:19:03.029	-0.068864
11:19:03.429	-0.068766
11:19:03.728	-0.068808
11:19:04.129	-0.068809
11:19:04.429	-0.068818
11:19:04.828	-0.068703
11:19:05.129	-0.068742
11:19:05.529	-0.068717
11:19:05.828	-0.068667
11:19:06.228	-0.068757
11:19:06.529	-0.068864
11:19:06.829	-0.068635
11:19:07.229	-0.068740
11:19:07.529	-0.068754
11:19:07.929	-0.068923
11:19:08.229	-0.068777
11:19:08.628	-0.068610
11:19:08.929	-0.068553
11:19:09.329	-0.068567
11:19:09.628	-0.068689
11:19:10.029	-0.068776
11:19:10.328	-0.068704
11:19:10.729	-0.068714
11:19:11.029	-0.068803
11:19:11.429	-0.068617
11:19:11.729	-0.068667
11:19:12.129	-0.068704
11:19:12.429	-0.068698
11:19:12.729	-0.068836
11:19:13.129	-0.068804
11:19:13.429	-0.068715
11:19:13.729	-0.068699
11:19:14.129	-0.068365
11:19:14.429	-0.068533
11:19:14.829	-0.068635
11:19:15.129	-0.068426
11:19:15.529	-0.068522
11:19:15.829	-0.068498
11:19:16.229	-0.068516
11:19:16.529	-0.068603
11:19:16.929	-0.068644
11:19:17.229	-0.068668
11:19:17.629	-0.068383
11:19:17.929	-0.068559
11:19:18.328	-0.068391
11:19:18.629	-0.068471
11:19:18.929	-0.068559
11:19:19.329	-0.068641
11:19:19.629	-0.068483
11:19:20.029	-0.068369
11:19:20.329	-0.068386
11:19:20.729	-0.068584
11:19:21.029	-0.068358
11:19:21.429	-0.068458
11:19:21.729	-0.068444
11:19:22.129	-0.068309
11:19:22.429	-0.068338
11:19:22.829	-0.068504
11:19:23.129	-0.068359
11:19:23.529	-0.068098
11:19:23.829	-0.068421
11:19:24.228	-0.068280
11:19:24.529	-0.068309
11:19:24.829	-0.068234
11:19:25.229	-0.068433
11:19:25.529	-0.068137
11:19:25.929	-0.068194
11:19:26.229	-0.068331
11:19:26.628	-0.068518
11:19:26.929	-0.068408
11:19:27.329	-0.068230
11:19:27.629	-0.068196
11:19:28.029	-0.068270
11:19:28.329	-0.068324
11:19:28.729	-0.068055
11:19:29.029	-0.067677
11:19:29.429	-0.067979
11:19:29.728	-0.068053
11:19:30.129	-0.068152
11:19:30.429	-0.068035
11:19:30.828	-0.068163
11:19:31.129	-0.067902
11:19:31.529	-0.068019
11:19:31.829	-0.067796
11:19:32.129	-0.067938
11:19:32.529	-0.067680
11:19:32.829	-0.067919
11:19:33.229	-0.067990
11:19:33.529	-0.067729
11:19:33.929	-0.068007
11:19:34.229	-0.067928
11:19:34.629	-0.067735
11:19:34.930	-0.067981
11:19:35.329	-0.067847
11:19:35.629	-0.067932
11:19:35.929	-0.067579
11:19:36.329	-0.067866
11:19:36.629	-0.067919
11:19:37.029	-0.067705
11:19:37.329	-0.067769
11:19:37.729	-0.067760
11:19:38.029	-0.067849
11:19:38.429	-0.067763
11:19:38.729	-0.067697
11:19:39.129	-0.067478
11:19:39.429	-0.067475
11:19:39.829	-0.067780
11:19:40.129	-0.067464
11:19:40.529	-0.067415
11:19:40.829	-0.067468
11:19:41.229	-0.067437
11:19:41.529	-0.067539
11:19:41.929	-0.066990
11:19:42.229	-0.067417
11:19:42.629	-0.067370
11:19:42.929	-0.067266
11:19:43.229	-0.067097
11:19:43.628	-0.067363
11:19:43.929	-0.067147
11:19:44.329	-0.067176
11:19:44.629	-0.066844
11:19:44.929	-0.066591
11:19:45.329	-0.066832
11:19:45.630	-0.066622
11:19:46.029	-0.066566
11:19:46.329	-0.066543
11:19:46.729	-0.066541
11:19:47.029	-0.066455
11:19:47.429	-0.066425
11:19:47.729	-0.066328
11:19:48.129	-0.066487
11:19:48.429	-0.066438
11:19:48.829	-0.066064
11:19:49.129	-0.065822
11:19:49.529	-0.065813
11:19:49.829	-0.065758
11:19:50.130	-0.065526
11:19:50.528	-0.065182
11:19:50.829	-0.065294
11:19:51.229	-0.065298
11:19:51.629	-0.065049
11:19:51.929	-0.065178
11:19:52.329	-0.064721
11:19:52.630	-0.064405
11:19:53.029	-0.064446
11:19:53.329	-0.064237
11:19:53.729	-0.063752
11:19:54.028	-0.063833
11:19:54.429	-0.063708
11:19:54.729	-0.063424
11:19:55.129	-0.062750
11:19:55.429	-0.062310
11:19:55.829	-0.062146
11:19:56.129	-0.062129
11:19:56.529	-0.061164
11:19:56.829	-0.061153
11:19:57.229	-0.060562
11:19:57.529	-0.059903
11:19:57.929	-0.059574
11:19:58.229	-0.058178
11:19:58.629	-0.056659
11:19:58.929	-0.055541
11:19:59.329	-0.053038
11:19:59.629	-0.045524
11:20:00.029	-0.007403
11:20:00.329	0.421493
11:20:00.729	5.331075
11:20:02.029	2.856176
11:20:02.329	0.112364
11:20:03.629	-0.049215
11:20:03.929	-0.053691
11:20:04.329	-0.055900
11:20:04.629	-0.057077
11:20:04.929	-0.058305
11:20:05.329	-0.059075
11:20:05.629	-0.060153
11:20:06.029	-0.060331
11:20:06.329	-0.061093
11:20:06.629	-0.061057
11:20:07.029	-0.061490
11:20:07.329	-0.061991
11:20:07.729	-0.062081
11:20:08.030	-0.061965
11:20:08.329	-0.061856
11:20:08.729	-0.061594
11:20:09.029	-0.061739
11:20:09.429	-0.061976
11:20:09.729	-0.061909
11:20:10.029	-0.062000
11:20:10.429	-0.062122
11:20:10.729	-0.061955
11:20:11.129	-0.060885
11:20:11.429	-0.059559
11:20:11.829	-0.056567
11:20:12.129	-0.051614
11:20:12.529	-0.040729
11:20:12.829	-0.034891
11:20:13.129	-0.024150
11:20:13.529	-0.019666
11:20:13.829	-0.021683
11:20:14.229	-0.030251
11:20:14.529	-0.035290
11:20:14.930	-0.044330
11:20:15.229	-0.049601
11:20:15.629	-0.052000
11:20:15.930	-0.052823
11:20:16.329	-0.054208
11:20:16.629	-0.054543
11:20:17.029	-0.054693
11:20:17.329	-0.054920
11:20:17.729	-0.055933
11:20:18.029	-0.056562
11:20:18.429	-0.056324
11:20:18.729	-0.056340
11:20:19.129	-0.057095
11:20:19.429	-0.055686
11:20:19.829	-0.056075
11:20:20.129	-0.055080
11:20:20.429	-0.054877
11:20:20.829	-0.052991
11:20:21.129	-0.047718
11:20:21.529	-0.031056
11:20:21.829	-0.015242
11:20:22.229	0.048138
11:20:22.529	0.146674
11:20:22.929	0.222185
11:20:23.229	0.232175
11:20:23.629	0.183561
11:20:23.929	0.096192
11:20:24.229	0.057691
11:20:24.629	0.005250
11:20:24.929	-0.025721
11:20:25.329	-0.042879
11:20:25.629	-0.047798
11:20:26.029	-0.052016
11:20:26.329	-0.054947
11:20:26.729	-0.055918
11:20:27.030	-0.054842
11:20:27.330	-0.051316
11:20:27.729	-0.046322
11:20:28.029	-0.045292
11:20:28.429	-0.046150
11:20:28.729	-0.049353
11:20:29.129	-0.051168
11:20:29.429	-0.053427
11:20:29.829	-0.055238
11:20:30.129	-0.055576
11:20:30.529	-0.055563
11:20:30.829	-0.051993
11:20:31.129	-0.047688
11:20:31.529	-0.019230
11:20:31.829	0.059749
11:20:32.229	0.198691
11:20:32.529	0.261415
11:20:32.929	0.246574
11:20:33.229	0.115207
11:20:33.629	0.026032
11:20:33.929	0.005270
11:20:34.329	-0.026848
11:20:34.629	-0.044873
11:20:35.029	-0.048842
11:20:35.329	-0.048528
11:20:35.730	-0.048374
11:20:36.030	-0.044423
11:20:36.429	-0.035890
11:20:36.729	-0.031394
11:20:37.129	-0.038957
11:20:37.430	-0.043301
11:20:37.829	-0.051398
11:20:38.129	-0.055826
11:20:38.429	-0.057581
11:20:38.829	-0.059530
11:20:39.129	-0.060710
11:20:39.429	-0.060740
11:20:39.830	-0.060990
11:20:40.129	-0.060974
11:20:40.429	-0.061184
11:20:40.829	-0.060755
11:20:41.129	-0.061275
11:20:41.429	-0.061301
11:20:41.829	-0.061572
11:20:42.129	-0.061312
11:20:42.529	-0.061666
11:20:42.829	-0.061559
11:20:43.229	-0.061724
11:20:43.529	-0.061714
11:20:43.929	-0.061602
11:20:44.229	-0.061612
11:20:44.629	-0.060950
11:20:44.929	-0.060966
11:20:45.229	-0.061499
11:20:45.629	-0.061104
11:20:45.929	-0.061522
11:20:46.329	-0.061663
11:20:46.629	-0.062063
11:20:47.029	-0.061244
11:20:47.329	-0.061774
11:20:47.729	-0.061859
11:20:48.029	-0.061787
11:20:48.429	-0.061860
11:20:48.729	-0.061967
11:20:49.129	-0.062459
11:20:49.430	-0.062014
11:20:49.829	-0.062214
11:20:50.129	-0.062352
11:20:50.529	-0.062252
11:20:50.829	-0.062343
11:20:51.229	-0.062894
11:20:51.529	-0.062949
11:20:51.929	-0.062522
11:20:52.229	-0.062521
11:20:52.529	-0.061741
11:20:52.930	-0.062386
11:20:53.229	-0.062422
11:20:53.629	-0.062242
11:20:53.929	-0.061963
11:20:54.329	-0.062367
11:20:54.630	-0.061796
11:20:55.029	-0.061747
11:20:55.329	-0.061856
11:20:55.729	-0.061843
11:20:56.030	-0.061223
11:20:56.429	-0.061394
11:20:56.730	-0.060878
11:20:57.129	-0.060583
11:20:57.429	-0.060869
11:20:57.829	-0.060663
11:20:58.129	-0.061174
11:20:58.530	-0.061195
11:20:58.929	-0.060970
11:20:59.229	-0.060453
11:20:59.630	-0.060619
11:20:59.929	-0.060054
11:21:00.329	-0.059576
11:21:00.629	-0.059211
11:21:01.029	-0.058402
11:21:01.329	-0.058065
11:21:01.729	-0.056342
11:21:02.029	-0.054349
11:21:02.430	-0.052472
11:21:02.729	-0.051066
11:21:03.129	-0.048098
11:21:03.429	-0.043879
11:21:03.829	-0.040307
11:21:04.129	-0.037790
11:21:04.529	-0.033033
11:21:04.829	-0.029165
11:21:05.230	-0.034872
11:21:05.530	-0.044673
11:21:05.929	-0.048718
11:21:06.229	-0.053940
11:21:06.629	-0.056940
11:21:06.929	-0.057752
11:21:07.329	-0.056315
11:21:07.629	-0.054387
11:21:08.029	-0.047775
11:21:08.330	-0.034838
11:21:08.730	-0.008001
11:21:09.029	0.010759
11:21:09.429	0.069951
11:21:09.729	0.137958
11:21:10.130	0.143652
11:21:10.429	0.119774
11:21:10.829	0.054917
11:21:11.129	0.009738
11:21:11.529	-0.020765
11:21:11.829	-0.031941
11:21:12.229	-0.046091
11:21:12.529	-0.052840
11:21:12.929	-0.056180
11:21:13.230	-0.057363
11:21:13.630	-0.058159
11:21:13.930	-0.059186
11:21:14.329	-0.059945
11:21:14.629	-0.060086
11:21:15.030	-0.060284
11:21:15.330	-0.060832
11:21:15.730	-0.061424
11:21:16.029	-0.061338
11:21:16.429	-0.061159
11:21:16.729	-0.061361
11:21:17.130	-0.061600
11:21:17.430	-0.061346
11:21:17.830	-0.061437
11:21:18.129	-0.061923
11:21:18.430	-0.061677
11:21:18.830	-0.061994
11:21:19.130	-0.062131
11:21:19.530	-0.062480
11:21:19.830	-0.062296
11:21:20.229	-0.062367
11:21:20.529	-0.062235
11:21:20.929	-0.062431
11:21:21.230	-0.062008
11:21:21.630	-0.062127
11:21:21.930	-0.062528
11:21:22.330	-0.062397
11:21:22.630	-0.062240
11:21:23.030	-0.062370
11:21:23.329	-0.063159
11:21:23.630	-0.063012
11:21:24.029	-0.062622
11:21:24.329	-0.062966
11:21:24.730	-0.062684
11:21:25.030	-0.062716
11:21:25.430	-0.063160
11:21:25.729	-0.063241
11:21:26.130	-0.062920
11:21:26.429	-0.063097
11:21:26.830	-0.063262
11:21:27.129	-0.062982
11:21:27.529	-0.062824
11:21:27.829	-0.062931
11:21:28.229	-0.063220
11:21:28.530	-0.063212
11:21:28.929	-0.063113
11:21:29.229	-0.062957
11:21:29.629	-0.063138
11:21:29.929	-0.063319
11:21:30.330	-0.063111
11:21:30.630	-0.063250
11:21:31.029	-0.063205
11:21:31.330	-0.063315
11:21:31.730	-0.063147
11:21:32.030	-0.062936
11:21:32.430	-0.062985
11:21:32.730	-0.062983
11:21:33.129	-0.062963
11:21:33.430	-0.062593
11:21:33.830	-0.062788
11:21:34.130	-0.062622
11:21:34.530	-0.063037
11:21:34.830	-0.063355
11:21:35.230	-0.063369
11:21:35.530	-0.063373
11:21:35.930	-0.063374
11:21:36.230	-0.062644
11:21:36.629	-0.063198
11:21:36.930	-0.063403
11:21:37.330	-0.062792
11:21:37.630	-0.063208
11:21:38.030	-0.062617
11:21:38.330	-0.062986
11:21:38.729	-0.062703
11:21:39.030	-0.062776
11:21:39.430	-0.062548
11:21:39.730	-0.063023
11:21:40.130	-0.062987
11:21:40.430	-0.063102
11:21:40.830	-0.063312
11:21:41.130	-0.062837
11:21:41.530	-0.063054
11:21:41.830	-0.063129
11:21:42.230	-0.063126
11:21:42.530	-0.062920
11:21:42.830	-0.062829