Chart Recorder Data File Fri, Sep 20, 2024 9:28 AM
Time (s)	CH1 (V)  
09:18:20.753	0.513457
09:18:21.552	0.499391
09:18:21.853	0.507369
09:18:22.153	0.510912
09:18:22.553	0.509299
09:18:22.853	0.492009
09:18:23.153	0.497346
09:18:23.553	0.504892
09:18:23.853	0.503495
09:18:24.253	0.501923
09:18:24.553	0.488750
09:18:24.952	0.479765
09:18:25.253	0.479030
09:18:25.653	0.441930
09:18:25.953	0.483848
09:18:26.253	0.488428
09:18:26.653	0.501589
09:18:26.952	0.511676
09:18:27.252	0.495254
09:18:27.653	0.496481
09:18:27.953	0.501816
09:18:28.252	0.518383
09:18:28.652	0.532454
09:18:28.953	0.529741
09:18:29.253	0.504438
09:18:29.653	0.541834
09:18:29.953	0.540709
09:18:30.253	0.528823
09:18:30.652	0.519640
09:18:30.953	0.510584
09:18:31.253	0.552866
09:18:31.653	0.548389
09:18:31.953	0.534046
09:18:32.353	0.523816
09:18:32.652	0.517171
09:18:32.953	0.517829
09:18:33.353	0.503089
09:18:33.653	0.521222
09:18:33.953	0.531826
09:18:34.353	0.528917
09:18:34.653	0.516949
09:18:34.953	0.485123
09:18:35.353	0.497073
09:18:35.653	0.497895
09:18:36.053	0.519258
09:18:36.353	0.524049
09:18:36.652	0.551354
09:18:37.053	0.533742
09:18:37.353	0.512618
09:18:37.753	0.486920
09:18:38.053	0.502786
09:18:38.353	0.507598
09:18:38.753	0.485347
09:18:39.053	0.451774
09:18:39.353	0.492261
09:18:39.753	0.504310
09:18:40.053	0.510510
09:18:40.353	0.514795
09:18:40.752	0.530343
09:18:41.053	0.543054
09:18:41.353	0.547433
09:18:41.753	0.535813
09:18:42.053	0.532922
09:18:42.453	0.519660
09:18:42.752	0.510307
09:18:43.053	0.522264
09:18:43.453	0.548953
09:18:43.753	0.554832
09:18:44.052	0.582119
09:18:44.453	0.552468
09:18:44.753	0.540539
09:18:45.153	0.559244
09:18:45.553	0.517030
09:18:45.853	0.491276
09:18:46.152	0.496338
09:18:46.553	0.505984
09:18:46.852	0.529875
09:18:47.152	0.511670
09:18:47.552	0.498507
09:18:47.853	0.506777
09:18:48.153	0.517307
09:18:48.553	0.531056
09:18:48.853	0.529445
09:18:49.153	0.545750
09:18:49.553	0.530636
09:18:49.853	0.527333
09:18:50.153	0.538664
09:18:50.553	0.535572
09:18:50.853	0.547448
09:18:51.153	0.547264
09:18:51.553	0.550001
09:18:51.853	0.551660
09:18:52.153	0.562128
09:18:52.552	0.579054
09:18:52.853	0.573707
09:18:53.153	0.580302
09:18:53.553	0.568727
09:18:53.853	0.550253
09:18:54.153	0.544143
09:18:54.553	0.532786
09:18:54.853	0.534253
09:18:55.153	0.527278
09:18:55.554	0.514323
09:18:55.853	0.492042
09:18:56.153	0.499190
09:18:56.553	0.508005
09:18:56.853	0.487726
09:18:57.153	0.472353
09:18:57.553	0.482754
09:18:57.853	0.530504
09:18:58.153	0.530763
09:18:58.553	0.502687
09:18:58.853	0.525205
09:18:59.153	0.539859
09:18:59.552	0.527794
09:18:59.853	0.517165
09:19:00.153	0.534794
09:19:00.553	0.538170
09:19:00.853	0.534759
09:19:01.153	0.541986
09:19:01.553	0.558725
09:19:01.853	0.557242
09:19:02.152	0.537522
09:19:02.553	0.527857
09:19:02.853	0.531282
09:19:03.253	0.559560
09:19:03.553	0.593685
09:19:03.953	0.577430
09:19:04.253	0.572865
09:19:04.653	0.558542
09:19:04.953	0.545723
09:19:05.253	0.535444
09:19:05.653	0.540625
09:19:05.953	0.534985
09:19:06.253	0.533467
09:19:06.653	0.499390
09:19:06.953	0.493530
09:19:07.253	0.494153
09:19:07.653	0.498394
09:19:07.952	0.484925
09:19:08.253	0.501400
09:19:08.652	0.513211
09:19:08.953	0.488854
09:19:09.253	0.501199
09:19:09.653	0.519818
09:19:09.953	0.522704
09:19:10.353	0.561338
09:19:10.653	0.553096
09:19:11.053	0.547624
09:19:11.353	0.556444
09:19:11.653	0.552753
09:19:12.053	0.564985
09:19:12.353	0.573156
09:19:12.753	0.588683
09:19:13.053	0.577975
09:19:13.353	0.578002
09:19:13.754	0.565444
09:19:14.053	0.554754
09:19:14.452	0.532834
09:19:14.753	0.521794
09:19:15.153	0.537122
09:19:15.454	0.525469
09:19:15.753	0.525846
09:19:16.153	0.549432
09:19:16.453	0.547768
09:19:16.853	0.534100
09:19:17.153	0.527461
09:19:17.453	0.520688
09:19:17.853	0.549201
09:19:18.153	0.584705
09:19:18.454	0.573331
09:19:18.853	0.548025
09:19:19.153	0.498745
09:19:19.553	0.514621
09:19:19.853	0.502650
09:19:20.253	0.505856
09:19:20.553	0.564833
09:19:20.953	0.596174
09:19:21.253	0.568405
09:19:21.553	0.571143
09:19:21.953	0.551660
09:19:22.253	0.547307
09:19:22.553	0.547867
09:19:22.953	0.530421
09:19:23.253	0.521300
09:19:23.553	0.535111
09:19:23.953	0.536076
09:19:24.253	0.538019
09:19:24.653	0.546592
09:19:24.953	0.549416
09:19:25.254	0.542897
09:19:25.653	0.562538
09:19:25.953	0.595971
09:19:26.253	0.587688
09:19:26.653	0.556887
09:19:26.953	0.534219
09:19:27.253	0.549959
09:19:27.653	0.560409
09:19:27.953	0.552398
09:19:28.353	0.559215
09:19:28.654	0.599279
09:19:28.953	0.600461
09:19:29.353	0.581000
09:19:29.653	0.568460
09:19:30.053	0.568472
09:19:30.353	0.565071
09:19:30.653	0.556222
09:19:31.053	0.559477
09:19:31.353	0.569334
09:19:31.753	0.543752
09:19:32.054	0.543371
09:19:32.353	0.534380
09:19:32.753	0.559050
09:19:33.053	0.557434
09:19:33.453	0.545561
09:19:33.753	0.560881
09:19:34.153	0.559936
09:19:34.453	0.563398
09:19:34.853	0.563119
09:19:35.153	0.540563
09:19:35.453	0.545034
09:19:35.853	0.551013
09:19:36.153	0.551684
09:19:36.453	0.560428
09:19:36.853	0.547492
09:19:37.154	0.549825
09:19:37.453	0.545496
09:19:37.853	0.537053
09:19:38.153	0.563057
09:19:38.553	0.545106
09:19:38.853	0.552252
09:19:39.253	0.541219
09:19:39.553	0.556664
09:19:39.953	0.555621
09:19:40.254	0.546628
09:19:40.654	0.551338
09:19:40.953	0.553436
09:19:41.253	0.497636
09:19:41.653	0.510547
09:19:41.953	0.515631
09:19:42.253	0.534045
09:19:42.653	0.545435
09:19:42.953	0.546331
09:19:43.354	0.547022
09:19:43.653	0.549824
09:19:44.054	0.545655
09:19:44.353	0.553769
09:19:44.654	0.534697
09:19:45.053	0.523378
09:19:45.353	0.543999
09:19:45.753	0.534457
09:19:46.054	0.533632
09:19:46.354	0.527116
09:19:46.754	0.511724
09:19:47.054	0.508314
09:19:47.453	0.505596
09:19:47.753	0.529087
09:19:48.053	0.544442
09:19:48.454	0.521032
09:19:48.753	0.501560
09:19:49.153	0.549134
09:19:49.454	0.530421
09:19:49.753	0.500058
09:19:50.153	0.525248
09:19:50.453	0.543060
09:19:50.754	0.534282
09:19:51.153	0.527709
09:19:51.453	0.515089
09:19:51.754	0.531545
09:19:52.154	0.539834
09:19:52.454	0.521971
09:19:52.854	0.504374
09:19:53.154	0.532732
09:19:53.454	0.544678
09:19:53.853	0.549691
09:19:54.153	0.536410
09:19:54.553	0.537258
09:19:54.853	0.542058
09:19:55.153	0.535713
09:19:55.553	0.544497
09:19:55.853	0.542236
09:19:56.253	0.547226
09:19:56.554	0.541261
09:19:56.854	0.523544
09:19:57.254	0.520488
09:19:57.554	0.518651
09:19:57.855	0.507396
09:19:58.254	0.509335
09:19:58.554	0.514051
09:19:58.853	0.528975
09:19:59.254	0.540375
09:19:59.554	0.546237
09:19:59.954	0.546893
09:20:00.254	0.542868
09:20:00.554	0.555473
09:20:00.953	0.546338
09:20:01.254	0.531524
09:20:01.654	0.493754
09:20:01.953	0.513394
09:20:02.254	0.532556
09:20:02.654	0.535560
09:20:02.953	0.524144
09:20:03.354	0.523691
09:20:03.654	0.539051
09:20:03.953	0.568514
09:20:04.354	0.584342
09:20:04.654	0.571225
09:20:05.054	0.570718
09:20:05.354	0.573732
09:20:05.654	0.567478
09:20:06.053	0.587691
09:20:06.354	0.600027
09:20:06.754	0.555619
09:20:07.054	0.546540
09:20:07.354	0.546717
09:20:07.753	0.547983
09:20:08.054	0.558592
09:20:08.454	0.556474
09:20:08.753	0.537974
09:20:09.154	0.562007
09:20:09.454	0.559801
09:20:09.753	0.581705
09:20:10.154	0.597070
09:20:10.453	0.554434
09:20:10.754	0.533187
09:20:11.154	0.505305
09:20:11.453	0.510141
09:20:11.754	0.514966
09:20:12.154	0.542617
09:20:12.453	0.565598
09:20:12.754	0.569358
09:20:13.154	0.596942
09:20:13.454	0.607724
09:20:13.854	0.595612
09:20:14.154	0.586228
09:20:14.453	0.582558
09:20:14.854	0.571866
09:20:15.153	0.588350
09:20:15.554	0.585577
09:20:15.854	0.577838
09:20:16.154	0.573904
09:20:16.554	0.565620
09:20:16.854	0.548966
09:20:17.254	0.559767
09:20:17.553	0.602056
09:20:17.854	0.615614
09:20:18.254	0.588240
09:20:18.554	0.653313
09:20:18.855	0.670736
09:20:19.254	0.655929
09:20:19.554	0.635429
09:20:19.854	0.609558
09:20:20.254	0.564146
09:20:20.553	0.551520
09:20:20.854	0.539374
09:20:21.254	0.588257
09:20:21.554	0.655474
09:20:21.854	0.665324
09:20:22.254	0.652201
09:20:22.553	0.656600
09:20:22.954	0.640776
09:20:23.253	0.600015
09:20:23.654	0.607855
09:20:23.953	0.614881
09:20:24.354	0.610179
09:20:24.654	0.599030
09:20:24.954	0.628432
09:20:25.354	0.661775
09:20:25.653	0.665396
09:20:25.954	0.655853
09:20:26.354	0.644815
09:20:26.653	0.646008
09:20:27.053	0.638594
09:20:27.353	0.617160
09:20:27.754	0.604669
09:20:28.054	0.604900
09:20:28.353	0.592852
09:20:28.753	0.588106
09:20:29.054	0.577202
09:20:29.454	0.593354
09:20:29.753	0.587190
09:20:30.054	0.615241
09:20:30.454	0.617014
09:20:30.754	0.608135
09:20:31.154	0.598193
09:20:31.453	0.588509
09:20:31.754	0.500803
09:20:32.154	0.493645
09:20:32.454	0.494421
09:20:32.753	0.476030
09:20:33.154	0.458918
09:20:33.454	0.468970
09:20:33.753	0.478072
09:20:34.153	0.542028
09:20:34.453	0.540313
09:20:34.854	0.532751
09:20:35.154	0.543514
09:20:35.553	0.552273
09:20:35.854	0.559308
09:20:36.254	0.553279
09:20:36.554	0.562261
09:20:36.954	0.518233
09:20:37.254	0.521515
09:20:37.654	0.529164
09:20:37.954	0.552577
09:20:38.354	0.566184
09:20:38.653	0.563213
09:20:39.053	0.550596
09:20:39.353	0.507495
09:20:39.654	0.507869
09:20:40.054	0.501683
09:20:40.354	0.522061
09:20:40.754	0.551130
09:20:41.054	0.552267
09:20:41.454	0.550178
09:20:41.754	0.551766
09:20:42.154	0.564466
09:20:42.454	0.544776
09:20:42.753	0.550905
09:20:43.153	0.606977
09:20:43.453	0.598482
09:20:43.854	0.538807
09:20:44.154	0.532141
09:20:44.454	0.532449
09:20:44.854	0.540803
09:20:45.153	0.514801
09:20:45.553	0.531578
09:20:45.954	0.544243
09:20:46.254	0.516677
09:20:46.654	0.502053
09:20:46.953	0.500269
09:20:47.254	0.487108
09:20:47.654	0.539265
09:20:47.954	0.556036
09:20:48.354	0.544984
09:20:48.653	0.553918
09:20:49.054	0.560748
09:20:49.353	0.569157
09:20:49.754	0.536527
09:20:50.054	0.511255
09:20:50.454	0.530574
09:20:50.754	0.515581
09:20:51.153	0.462630
09:20:51.454	0.434152
09:20:51.854	0.396500
09:20:52.153	0.413343
09:20:52.553	0.470677
09:20:52.854	0.456511
09:20:53.154	0.438823
09:20:53.553	0.447354
09:20:53.854	0.546013
09:20:54.154	0.526124
09:20:54.554	0.511525
09:20:54.853	0.454766
09:20:55.154	0.383170
09:20:55.553	0.370701
09:20:55.854	0.520982
09:20:56.254	0.622186
09:20:56.554	0.634340
09:20:56.854	0.621470
09:20:57.254	0.521720
09:20:57.553	0.520533
09:20:57.954	0.498523
09:20:58.254	0.503601
09:20:58.654	0.506991
09:20:58.954	0.504672
09:20:59.353	0.511531
09:20:59.654	0.517112
09:20:59.954	0.580105
09:21:00.354	0.530258
09:21:00.653	0.571847
09:21:00.953	0.604616
09:21:01.353	0.570616
09:21:01.654	0.509995
09:21:01.954	0.493091
09:21:02.354	0.515766
09:21:02.653	0.505271
09:21:03.054	0.550754
09:21:03.354	0.508944
09:21:03.754	0.545639
09:21:04.053	0.550415
09:21:04.454	0.526339
09:21:04.754	0.550619
09:21:05.153	0.575819
09:21:05.454	0.562812
09:21:05.854	0.553121
09:21:06.154	0.576627
09:21:06.553	0.589309
09:21:06.854	0.571957
09:21:07.154	0.552039
09:21:07.555	0.593562
09:21:07.853	0.595691
09:21:08.254	0.575182
09:21:08.554	0.595294
09:21:08.954	0.586790
09:21:09.254	0.591924
09:21:09.654	0.557770
09:21:09.954	0.568093
09:21:10.354	0.564374
09:21:10.654	0.610409
09:21:10.954	0.618584
09:21:11.353	0.648403
09:21:11.653	0.648854
09:21:12.054	0.635428
09:21:12.353	0.627690
09:21:12.753	0.624561
09:21:13.054	0.588151
09:21:13.454	0.573162
09:21:13.753	0.595938
09:21:14.154	0.551175
09:21:14.454	0.563729
09:21:14.854	0.541839
09:21:15.154	0.575529
09:21:15.553	0.571298
09:21:15.854	0.587011
09:21:16.154	0.583612
09:21:16.554	0.604916
09:21:16.853	0.622696
09:21:17.254	0.640882
09:21:17.554	0.638469
09:21:17.954	0.616666
09:21:18.253	0.611410
09:21:18.653	0.632155
09:21:18.954	0.618488
09:21:19.354	0.592325
09:21:19.654	0.583914
09:21:20.054	0.582280
09:21:20.354	0.602945
09:21:20.754	0.574390
09:21:21.054	0.593818
09:21:21.453	0.602989
09:21:21.754	0.623019
09:21:22.054	0.617051
09:21:22.454	0.622390
09:21:22.754	0.619057
09:21:23.054	0.630186
09:21:23.454	0.606518
09:21:23.754	0.620993
09:21:24.153	0.619950
09:21:24.453	0.577083
09:21:24.854	0.581573
09:21:25.153	0.557044
09:21:25.554	0.538781
09:21:25.854	0.570645
09:21:26.254	0.593643
09:21:26.554	0.593755
09:21:26.954	0.571499
09:21:27.254	0.570500
09:21:27.654	0.567401
09:21:27.954	0.580799
09:21:28.354	0.588556
09:21:28.655	0.612615
09:21:29.054	0.632911
09:21:29.354	0.618344
09:21:29.754	0.634588
09:21:30.054	0.669476
09:21:30.353	0.663265
09:21:30.754	0.616812
09:21:31.053	0.610196
09:21:31.454	0.627344
09:21:31.754	0.670647
09:21:32.154	0.662767
09:21:32.454	0.651111
09:21:32.854	0.703539
09:21:33.154	0.706673
09:21:33.554	0.675737
09:21:33.853	0.689912
09:21:34.254	0.745117
09:21:34.554	0.686882
09:21:34.955	0.716458
09:21:35.254	0.743503
09:21:35.654	0.713432
09:21:35.953	0.743947
09:21:36.254	0.746868
09:21:36.654	0.724125
09:21:36.954	0.752360
09:21:37.254	0.694096
09:21:37.653	0.740206
09:21:37.954	0.765530
09:21:38.354	0.816013
09:21:38.654	0.856516
09:21:39.054	0.877622
09:21:39.354	0.886395
09:21:39.654	0.907165
09:21:40.054	0.867970
09:21:40.354	0.919706
09:21:40.754	1.006052
09:21:41.053	1.055876
09:21:41.354	1.075390
09:21:41.754	1.130267
09:21:42.054	1.202728
09:21:42.354	1.289698
09:21:42.754	1.292412
09:21:43.053	1.383669
09:21:43.454	1.470744
09:21:43.754	1.526403
09:21:44.154	1.606388
09:21:44.454	1.651223
09:21:44.854	1.707121
09:21:45.153	1.726667
09:21:45.554	1.744407
09:21:45.954	1.774808
09:21:46.254	1.791492
09:21:46.554	1.809177
09:21:46.953	1.872223
09:21:47.254	1.898054
09:21:47.654	1.887552
09:21:47.954	1.843511
09:21:48.354	1.814921
09:21:48.654	1.791931
09:21:49.054	1.785727
09:21:49.354	1.729779
09:21:49.754	1.673939
09:21:50.054	1.647126
09:21:50.454	1.607045
09:21:50.754	1.555897
09:21:51.154	1.530001
09:21:51.454	1.444951
09:21:51.853	1.413460
09:21:52.154	1.409462
09:21:52.554	1.357200
09:21:52.854	1.318343
09:21:53.253	1.244718
09:21:53.553	1.226087
09:21:53.954	1.197351
09:21:54.254	1.154143
09:21:54.654	1.148138
09:21:54.954	1.151850
09:21:55.354	1.132226
09:21:55.654	1.122078
09:21:56.054	1.097283
09:21:56.354	1.080822
09:21:56.754	1.049540
09:21:57.054	1.019902
09:21:57.454	1.005910
09:21:57.754	0.952927
09:21:58.154	0.926854
09:21:58.455	0.903997
09:21:58.854	0.902803
09:21:59.154	0.903063
09:21:59.454	0.913327
09:21:59.854	0.925749
09:22:00.154	0.904269
09:22:00.554	0.900967
09:22:00.854	0.911884
09:22:01.254	0.860839
09:22:01.554	0.818509
09:22:01.954	0.879039
09:22:02.254	0.894759
09:22:02.654	0.916756
09:22:02.954	0.888138
09:22:03.353	0.875043
09:22:03.654	0.872345
09:22:04.054	0.914721
09:22:04.354	0.921846
09:22:04.654	0.963349
09:22:05.054	0.976703
09:22:05.354	0.970398
09:22:05.653	0.928728
09:22:06.054	0.929584
09:22:06.354	0.969717
09:22:06.754	0.983028
09:22:07.054	0.979068
09:22:07.454	0.902881
09:22:07.754	0.904906
09:22:08.154	0.895117
09:22:08.454	0.899447
09:22:08.853	0.937933
09:22:09.154	0.936415
09:22:09.554	0.834750
09:22:09.854	0.869148
09:22:10.254	0.862606
09:22:10.554	0.901114
09:22:10.954	0.895069
09:22:11.254	0.843757
09:22:11.554	0.864752
09:22:11.954	0.880526
09:22:12.254	0.910286
09:22:12.654	0.929793
09:22:12.954	0.917062
09:22:13.354	0.894823
09:22:13.654	0.935099
09:22:14.054	0.929231
09:22:14.354	0.917976
09:22:14.754	0.930767
09:22:15.054	0.936289
09:22:15.454	0.899305
09:22:15.754	0.964509
09:22:16.154	0.869636
09:22:16.454	0.857492
09:22:16.855	0.810586
09:22:17.155	0.829077
09:22:17.554	0.827996
09:22:17.854	0.838307
09:22:18.254	0.810828
09:22:18.554	0.822893
09:22:18.954	0.866182
09:22:19.254	0.848616
09:22:19.554	0.837395
09:22:19.954	0.834546
09:22:20.254	0.818642
09:22:20.654	0.777337
09:22:20.954	0.762554
09:22:21.354	0.728864
09:22:21.654	0.748041
09:22:22.055	0.731311
09:22:22.355	0.723150
09:22:22.754	0.662528
09:22:23.054	0.651040
09:22:23.454	0.655915
09:22:23.754	0.663403
09:22:24.154	0.643108
09:22:24.454	0.629916
09:22:24.854	0.611886
09:22:25.154	0.585179
09:22:25.454	0.619978
09:22:25.854	0.640328
09:22:26.154	0.636183
09:22:26.454	0.609078
09:22:26.854	0.602877
09:22:27.154	0.590478
09:22:27.455	0.585097
09:22:27.855	0.566175
09:22:28.154	0.551751
09:22:28.555	0.545482
09:22:28.854	0.533211
09:22:29.254	0.588141
09:22:29.554	0.548678
09:22:29.954	0.551387
09:22:30.254	0.556114
09:22:30.655	0.534753
09:22:30.954	0.529501
09:22:31.354	0.551123
09:22:31.654	0.531432
09:22:32.055	0.500695
09:22:32.354	0.504364
09:22:32.754	0.499014
09:22:33.154	0.503547
09:22:33.454	0.519389
09:22:33.754	0.515023
09:22:34.154	0.506991
09:22:34.455	0.494218
09:22:34.854	0.516888
09:22:35.154	0.494956
09:22:35.554	0.522188
09:22:35.854	0.506620
09:22:36.254	0.503388
09:22:36.554	0.471772
09:22:36.854	0.490894
09:22:37.254	0.459381
09:22:37.554	0.479005
09:22:37.954	0.477137
09:22:38.255	0.568326
09:22:38.554	0.588564
09:22:38.954	0.575636
09:22:39.255	0.584105
09:22:39.654	0.573737
09:22:39.954	0.583691
09:22:40.354	0.585780
09:22:40.655	0.548172
09:22:41.055	0.549192
09:22:41.354	0.565267
09:22:41.754	0.573123
09:22:42.054	0.606359
09:22:42.454	0.610075
09:22:42.754	0.576777
09:22:43.155	0.545259
09:22:43.454	0.531266
09:22:43.754	0.525177
09:22:44.154	0.594681
09:22:44.455	0.611664
09:22:44.854	0.594867
09:22:45.154	0.582906
09:22:45.555	0.588982
09:22:45.855	0.616624
09:22:46.254	0.620016
09:22:46.555	0.536344
09:22:46.954	0.510905
09:22:47.255	0.503828
09:22:47.655	0.524864
09:22:47.954	0.550869
09:22:48.355	0.543784
09:22:48.655	0.544613
09:22:48.955	0.543005
09:22:49.354	0.531914
09:22:49.655	0.538468
09:22:49.954	0.535134
09:22:50.354	0.543840
09:22:50.654	0.577707
09:22:50.954	0.581760
09:22:51.354	0.580603
09:22:51.654	0.590027
09:22:52.054	0.557466
09:22:52.354	0.539124
09:22:52.655	0.555054
09:22:53.055	0.530687
09:22:53.355	0.530623
09:22:53.754	0.547167
09:22:54.055	0.564843
09:22:54.455	0.569057
09:22:54.755	0.566929
09:22:55.154	0.577955
09:22:55.454	0.579566
09:22:55.755	0.585144
09:22:56.155	0.571446
09:22:56.455	0.524353
09:22:56.854	0.535358
09:22:57.155	0.511592
09:22:57.555	0.509096
09:22:57.855	0.497608
09:22:58.155	0.547785
09:22:58.554	0.486053
09:22:58.855	0.475335
09:22:59.255	0.486721
09:22:59.555	0.516310
09:22:59.955	0.505394
09:23:00.255	0.492300
09:23:00.655	0.504853
09:23:00.955	0.497788
09:23:01.355	0.507128
09:23:01.655	0.486884
09:23:01.955	0.410009
09:23:02.355	0.444534
09:23:02.655	0.478342
09:23:02.955	0.526917
09:23:03.355	0.551671
09:23:03.654	0.551946
09:23:04.055	0.546023
09:23:04.354	0.563895
09:23:04.754	0.524474
09:23:05.055	0.547762
09:23:05.455	0.581316
09:23:05.755	0.591235
09:23:06.054	0.529087
09:23:06.455	0.528006
09:23:06.755	0.535258
09:23:07.055	0.536747
09:23:07.454	0.539994
09:23:07.755	0.524018
09:23:08.155	0.508681
09:23:08.455	0.512959
09:23:08.855	0.520907
09:23:09.155	0.518649
09:23:09.555	0.530461
09:23:09.854	0.549916
09:23:10.155	0.549533
09:23:10.555	0.544063
09:23:10.855	0.575980
09:23:11.255	0.624238
09:23:11.554	0.588088
09:23:11.955	0.581446
09:23:12.255	0.528724
09:23:12.655	0.543086
09:23:12.955	0.607517
09:23:13.355	0.575200
09:23:13.655	0.563325
09:23:14.055	0.611565
09:23:14.355	0.561820
09:23:14.755	0.507051
09:23:15.054	0.518810
09:23:15.454	0.542280
09:23:15.754	0.497815
09:23:16.055	0.495766
09:23:16.455	0.511496
09:23:16.755	0.526662
09:23:17.054	0.519576
09:23:17.455	0.513297
09:23:17.755	0.507849
09:23:18.155	0.521347
09:23:18.455	0.508887
09:23:18.854	0.551836
09:23:19.156	0.527433
09:23:19.455	0.521442
09:23:19.855	0.447477
09:23:20.154	0.409459
09:23:20.555	0.522777
09:23:20.854	0.590498
09:23:21.154	0.592193
09:23:21.555	0.579592
09:23:21.855	0.561573
09:23:22.255	0.587817
09:23:22.554	0.589671
09:23:22.854	0.572648
09:23:23.254	0.585768
09:23:23.555	0.568053
09:23:23.855	0.552217
09:23:24.255	0.555087
09:23:24.554	0.584687
09:23:24.856	0.544629
09:23:25.255	0.562169
09:23:25.554	0.539191
09:23:25.955	0.548830
09:23:26.255	0.575494
09:23:26.654	0.553682
09:23:26.954	0.507163
09:23:27.354	0.503278
09:23:27.655	0.510226
09:23:28.054	0.526714
09:23:28.354	0.518460
09:23:28.754	0.510220
09:23:29.055	0.515993
09:23:29.455	0.528973
09:23:29.755	0.558772
09:23:30.055	0.576333
09:23:30.455	0.576805
09:23:30.754	0.554308
09:23:31.054	0.548352
09:23:31.454	0.537017
09:23:31.755	0.500489
09:23:32.055	0.491010
09:23:32.455	0.502661
09:23:32.755	0.510946
09:23:33.155	0.484809
09:23:33.455	0.420591
09:23:33.854	0.458295
09:23:34.154	0.482474
09:23:34.555	0.511525
09:23:34.855	0.512780
09:23:35.155	0.524618
09:23:35.555	0.501438
09:23:35.854	0.481285
09:23:36.256	0.482100
09:23:36.555	0.494589
09:23:36.855	0.441511
09:23:37.255	0.447711
09:23:37.554	0.455004
09:23:37.855	0.474977
09:23:38.254	0.471859
09:23:38.555	0.451994
09:23:38.955	0.504378
09:23:39.255	0.469062
09:23:39.655	0.495475
09:23:39.954	0.494496
09:23:40.354	0.507636
09:23:40.655	0.531924
09:23:41.054	0.547811
09:23:41.355	0.569087
09:23:41.754	0.561312
09:23:42.055	0.546788
09:23:42.456	0.535039
09:23:42.754	0.480434
09:23:43.154	0.493362
09:23:43.454	0.499165
09:23:43.855	0.498413
09:23:44.154	0.491266
09:23:44.555	0.478065
09:23:44.854	0.431334
09:23:45.155	0.462344
09:23:45.555	0.488378
09:23:45.854	0.501387
09:23:46.254	0.550536
09:23:46.654	0.539462
09:23:46.955	0.557344
09:23:47.355	0.529527
09:23:47.654	0.569530
09:23:47.955	0.589835
09:23:48.355	0.631697
09:23:48.654	0.641940
09:23:49.055	0.681156
09:23:49.354	0.706436
09:23:49.754	0.765776
09:23:50.055	0.799238
09:23:50.455	0.891674
09:23:50.755	0.921979
09:23:51.155	0.985205
09:23:51.554	1.105741
09:23:51.854	1.204176
09:23:52.155	1.264542
09:23:52.555	1.327487
09:23:52.855	1.458984
09:23:53.155	1.557635
09:23:53.555	1.673265
09:23:53.854	1.751198
09:23:54.255	1.875585
09:23:54.555	1.991293
09:23:54.955	2.069660
09:23:55.255	2.184217
09:23:55.655	2.584852
09:23:56.955	2.669500
09:23:57.254	2.668659
09:23:57.655	2.702045
09:23:57.954	2.761039
09:23:58.255	2.751809
09:23:58.654	2.724952
09:23:58.954	2.653929
09:23:59.355	2.574266
09:23:59.655	2.485276
09:24:00.054	2.393995
09:24:00.354	2.353711
09:24:00.755	2.256123
09:24:01.055	2.135463
09:24:01.355	2.076315
09:24:01.755	1.523084
09:24:03.055	1.342917
09:24:03.355	1.257245
09:24:03.755	1.134900
09:24:04.055	1.040009
09:24:04.355	0.935329
09:24:04.755	0.855590
09:24:05.055	0.834914
09:24:05.454	0.806087
09:24:05.755	0.716464
09:24:06.155	0.713665
09:24:06.455	0.683281
09:24:06.855	0.632687
09:24:07.155	0.609446
09:24:07.555	0.599133
09:24:07.855	0.558878
09:24:08.155	0.529449
09:24:08.555	0.513920
09:24:08.855	0.496831
09:24:09.154	0.571664
09:24:09.555	0.572787
09:24:09.855	0.578526
09:24:10.255	0.575807
09:24:10.556	0.622122
09:24:10.954	0.636291
09:24:11.255	0.560116
09:24:11.655	0.541559
09:24:11.955	0.507899
09:24:12.354	0.524273
09:24:12.655	0.546963
09:24:13.055	0.532304
09:24:13.355	0.534712
09:24:13.755	0.525376
09:24:14.055	0.534944
09:24:14.355	0.511314
09:24:14.755	0.477702
09:24:15.054	0.469315
09:24:15.455	0.495640
09:24:15.754	0.476556
09:24:16.155	0.549769
09:24:16.455	0.546014
09:24:16.755	0.538783
09:24:17.154	0.529540
09:24:17.455	0.513071
09:24:17.855	0.545165
09:24:18.155	0.577594
09:24:18.455	0.541969
09:24:18.854	0.526755
09:24:19.155	0.479635
09:24:19.555	0.509696
09:24:19.854	0.491921
09:24:20.155	0.558681
09:24:20.555	0.530301
09:24:20.855	0.549622
09:24:21.255	0.534391
09:24:21.555	0.565847
09:24:21.954	0.550846
09:24:22.255	0.522825
09:24:22.555	0.490923
09:24:22.954	0.505107
09:24:23.255	0.513485
09:24:23.554	0.451237
09:24:23.955	0.464482
09:24:24.254	0.477929
09:24:24.655	0.472134
09:24:24.955	0.493923
09:24:25.255	0.462319
09:24:25.655	0.503411
09:24:25.956	0.538936
09:24:26.355	0.536435
09:24:26.655	0.542110
09:24:27.055	0.531332
09:24:27.354	0.508329
09:24:27.754	0.526441
09:24:28.055	0.523381
09:24:28.454	0.520887
09:24:28.755	0.532254
09:24:29.155	0.528874
09:24:29.454	0.541223
09:24:29.855	0.572498
09:24:30.155	0.538474
09:24:30.455	0.513619
09:24:30.855	0.531185
09:24:31.155	0.526756
09:24:31.555	0.497854
09:24:31.855	0.524673
09:24:32.256	0.494444
09:24:32.555	0.524738
09:24:32.955	0.533310
09:24:33.254	0.532360
09:24:33.655	0.547045
09:24:33.955	0.576741
09:24:34.255	0.547234
09:24:34.655	0.576732
09:24:34.955	0.604250
09:24:35.255	0.616687
09:24:35.655	0.612352
09:24:35.955	0.530330
09:24:36.255	0.536385
09:24:36.655	0.522788
09:24:36.955	0.533172
09:24:37.255	0.541026
09:24:37.654	0.492089
09:24:37.955	0.489162
09:24:38.355	0.513214
09:24:38.655	0.525156
09:24:39.055	0.530913
09:24:39.355	0.508139
09:24:39.755	0.579558
09:24:40.055	0.567103
09:24:40.455	0.540037
09:24:40.755	0.532998
09:24:41.154	0.547856
09:24:41.455	0.570589
09:24:41.855	0.555031
09:24:42.154	0.595431
09:24:42.555	0.579229
09:24:42.855	0.586597
09:24:43.155	0.551922
09:24:43.555	0.531967
09:24:43.854	0.526086
09:24:44.255	0.563919
09:24:44.554	0.563208
09:24:44.955	0.536299
09:24:45.255	0.550948
09:24:45.655	0.557197
09:24:45.955	0.555826
09:24:46.355	0.558916
09:24:46.655	0.579041
09:24:47.055	0.563640
09:24:47.354	0.592297
09:24:47.755	0.583491
09:24:48.055	0.569878
09:24:48.455	0.501982
09:24:48.755	0.571541
09:24:49.155	0.580381
09:24:49.454	0.552670
09:24:49.855	0.531403
09:24:50.155	0.521920
09:24:50.454	0.498726
09:24:50.855	0.508242
09:24:51.154	0.542252
09:24:51.555	0.520666
09:24:51.856	0.482480
09:24:52.255	0.472205
09:24:52.555	0.474270
09:24:52.955	0.498472
09:24:53.255	0.535007
09:24:53.555	0.538073
09:24:53.955	0.591902
09:24:54.255	0.618556
09:24:54.655	0.617940
09:24:54.955	0.566934
09:24:55.354	0.576826
09:24:55.655	0.614668
09:24:56.055	0.563851
09:24:56.355	0.562145
09:24:56.755	0.553335
09:24:57.055	0.548452
09:24:57.454	0.564589
09:24:57.755	0.571488
09:24:58.155	0.537880
09:24:58.454	0.509530
09:24:58.855	0.540792
09:24:59.155	0.558669
09:24:59.456	0.567452
09:24:59.855	0.551567
09:25:00.155	0.568414
09:25:00.554	0.540578
09:25:00.855	0.526244
09:25:01.255	0.502993
09:25:01.555	0.489388
09:25:01.955	0.476619
09:25:02.255	0.480470
09:25:02.555	0.493879
09:25:02.955	0.489651
09:25:03.255	0.514695
09:25:03.655	0.545510
09:25:03.955	0.561778
09:25:04.355	0.541981
09:25:04.656	0.534625
09:25:04.954	0.565916
09:25:05.355	0.528619
09:25:05.655	0.542811
09:25:06.055	0.556537
09:25:06.355	0.531583
09:25:06.756	0.564901
09:25:07.055	0.556221
09:25:07.455	0.522575
09:25:07.756	0.519915
09:25:08.155	0.524765
09:25:08.455	0.509700
09:25:08.855	0.509964
09:25:09.155	0.497511
09:25:09.555	0.524316
09:25:09.855	0.545292
09:25:10.255	0.551534
09:25:10.555	0.582496
09:25:10.955	0.539215
09:25:11.255	0.506642
09:25:11.655	0.518576
09:25:11.955	0.530059
09:25:12.355	0.535590
09:25:12.655	0.527754
09:25:13.055	0.553772
09:25:13.355	0.574470
09:25:13.655	0.545532
09:25:14.055	0.576882
09:25:14.355	0.598020
09:25:14.755	0.594803
09:25:15.055	0.619908
09:25:15.455	0.606752
09:25:15.755	0.618374
09:25:16.155	0.632698
09:25:16.455	0.655930
09:25:16.855	0.690413
09:25:17.155	0.747269
09:25:17.555	0.850318
09:25:17.855	0.886341
09:25:18.255	0.965468
09:25:18.555	1.065997
09:25:18.855	1.128846
09:25:19.255	1.274674
09:25:19.555	1.466447
09:25:19.955	1.681472
09:25:20.255	1.823598
09:25:20.555	2.060421
09:25:20.955	2.729010
09:25:22.255	2.845025
09:25:22.555	2.959523
09:25:22.955	3.154020
09:25:23.255	3.285633
09:25:23.555	3.448819
09:25:23.955	3.574987
09:25:24.255	3.637591
09:25:24.655	3.748158
09:25:24.955	3.853030
09:25:25.355	3.910862
09:25:25.655	3.935544
09:25:26.056	3.918530
09:25:26.356	3.854592
09:25:26.755	3.750270
09:25:27.056	3.707770
09:25:27.455	3.592080
09:25:27.756	3.501016
09:25:28.155	3.448367
09:25:28.455	3.420931
09:25:28.755	3.339833
09:25:29.155	3.228500
09:25:29.456	3.220993
09:25:29.855	3.117732
09:25:30.155	2.972980
09:25:30.456	2.966803
09:25:30.856	2.921011
09:25:31.155	2.880825
09:25:31.555	2.845597
09:25:31.856	2.836950
09:25:32.256	2.803796
09:25:32.555	2.785456
09:25:32.955	2.739641
09:25:33.255	2.682411
09:25:33.656	2.685800
09:25:33.955	2.662195
09:25:34.355	2.568234
09:25:34.655	2.493456
09:25:34.955	2.470074
09:25:35.355	2.435172
09:25:35.656	2.459914
09:25:35.955	2.443359
09:25:36.355	2.394899
09:25:36.655	2.343981
09:25:37.055	2.372295
09:25:37.355	2.350516
09:25:37.755	2.245192
09:25:38.055	2.242278
09:25:38.455	2.314788
09:25:38.755	2.369063
09:25:39.155	2.349739
09:25:39.456	2.337946
09:25:39.856	2.346096
09:25:40.155	2.375972
09:25:40.556	2.339530
09:25:40.855	2.368790
09:25:41.256	2.383091
09:25:41.556	2.394436
09:25:41.855	2.376925
09:25:42.256	2.412093
09:25:42.555	2.388636
09:25:42.955	2.360288
09:25:43.256	2.381977
09:25:43.655	2.371409
09:25:43.956	2.327923
09:25:44.356	2.358341
09:25:44.655	2.356466
09:25:45.056	2.356772
09:25:45.355	2.372822
09:25:45.756	2.395669
09:25:46.056	2.388999
09:25:46.455	2.376013
09:25:46.856	2.341634
09:25:47.156	2.339881
09:25:47.556	2.413965
09:25:47.856	2.357482
09:25:48.156	2.361779
09:25:48.555	2.391588
09:25:48.856	2.362740
09:25:49.255	2.353465
09:25:49.556	2.358379
09:25:49.856	2.408277
09:25:50.256	2.353379
09:25:50.556	2.345401
09:25:50.956	2.399432
09:25:51.255	2.443042
09:25:51.655	2.427541
09:25:51.956	2.433258
09:25:52.356	2.435265
09:25:52.655	2.420538
09:25:53.056	2.423748
09:25:53.355	2.436637
09:25:53.755	2.444656
09:25:54.056	2.444376
09:25:54.455	2.466203
09:25:54.756	2.455029
09:25:55.156	2.453811
09:25:55.456	2.484573
09:25:55.755	2.484801
09:25:56.156	2.518033
09:25:56.455	2.557102
09:25:56.856	2.604400
09:25:57.156	2.680274
09:25:57.555	2.778329
09:25:57.856	2.849950
09:25:58.256	2.990935
09:25:58.556	3.075822
09:25:58.855	3.117552
09:25:59.255	3.254337
09:25:59.556	3.441076
09:25:59.956	3.614546
09:26:00.355	3.720076
09:26:00.655	3.974800
09:26:00.956	4.103364
09:26:01.356	4.449414
09:26:01.656	4.784440
09:26:02.055	5.130378
09:26:02.356	5.258579
09:26:02.755	5.600081
09:26:03.056	5.838991
09:26:03.456	6.038515
09:26:03.756	6.149971
09:26:04.056	6.388888
09:26:04.456	6.591083
09:26:04.755	989999999999
09:26:05.156	989999999999
09:26:05.556	989999999999
09:26:05.855	989999999999
09:26:06.255	989999999999
09:26:06.555	989999999999
09:26:06.955	989999999999
09:26:07.256	989999999999
09:26:07.656	989999999999
09:26:07.956	989999999999
09:26:08.356	989999999999
09:26:08.656	989999999999
09:26:09.056	989999999999
09:26:09.356	6.345458
09:26:09.755	6.013862
09:26:10.056	5.878520
09:26:10.456	5.590205
09:26:10.756	5.330970
09:26:11.057	5.201199
09:26:11.455	4.910178
09:26:11.756	4.595197
09:26:12.155	4.330166
09:26:12.455	4.241202
09:26:12.856	3.987685
09:26:13.156	3.816151
09:26:13.556	3.575739
09:26:13.855	3.495926
09:26:14.156	3.357355
09:26:14.555	3.220443
09:26:14.856	3.080471
09:26:15.155	3.013573
09:26:15.556	2.910791
09:26:15.856	2.765504
09:26:16.256	2.628966
09:26:16.556	2.556893
09:26:16.955	2.473284
09:26:17.255	2.387164
09:26:17.656	2.329306
09:26:17.955	2.279340
09:26:18.255	2.198915
09:26:18.656	2.157529
09:26:18.955	2.126005
09:26:19.356	2.083849
09:26:19.655	2.035389
09:26:20.056	1.778044
09:26:21.355	1.737890
09:26:21.656	1.708711
09:26:21.955	1.670543
09:26:22.356	1.658953
09:26:22.656	1.622831
09:26:23.056	1.581632
09:26:23.356	1.587536
09:26:23.756	1.546969
09:26:24.056	1.489619
09:26:24.456	1.440157
09:26:24.756	1.440582
09:26:25.056	1.393729
09:26:25.455	1.361890
09:26:25.755	1.340739
09:26:26.056	1.331291
09:26:26.456	1.319688
09:26:26.755	1.325637
09:26:27.056	1.256292
09:26:27.456	1.245644
09:26:27.755	1.253852
09:26:28.156	1.215916
09:26:28.456	1.194624
09:26:28.855	1.150550
09:26:29.156	1.164409
09:26:29.556	1.168670
09:26:29.856	1.143683
09:26:30.155	1.114323
09:26:30.556	1.094713
09:26:30.855	1.070665
09:26:31.256	1.049664
09:26:31.557	1.052484
09:26:31.956	1.062720
09:26:32.257	1.063139
09:26:32.656	1.026509
09:26:32.956	1.058438
09:26:33.256	1.046773
09:26:33.656	1.037496
09:26:33.955	1.051778
09:26:34.356	1.034368
09:26:34.655	1.031881
09:26:35.055	1.005381
09:26:35.356	1.006374
09:26:35.756	0.997942
09:26:36.055	0.991955
09:26:36.456	0.957810
09:26:36.755	0.945982
09:26:37.156	0.940837
09:26:37.455	0.949268
09:26:37.856	0.907796
09:26:38.156	0.920123
09:26:38.556	0.941450
09:26:38.855	0.935944
09:26:39.255	0.934742
09:26:39.555	0.933097
09:26:39.956	0.923252
09:26:40.256	0.926947
09:26:40.556	0.915143
09:26:40.956	0.718675
09:26:41.256	0.710436
09:26:41.655	0.722859
09:26:41.956	0.751640
09:26:42.356	0.776584
09:26:42.656	0.938149
09:26:43.055	0.996917
09:26:43.356	0.908009
09:26:43.756	0.890491
09:26:44.057	0.902766
09:26:44.455	0.803849
09:26:44.756	0.799561
09:26:45.156	0.774394
09:26:45.456	0.788744
09:26:45.856	0.822932
09:26:46.156	0.802082
09:26:46.555	0.847691
09:26:46.856	0.851601
09:26:47.256	0.790603
09:26:47.556	0.892535
09:26:47.956	0.958786
09:26:48.256	0.919283
09:26:48.655	0.920804
09:26:48.956	0.948793
09:26:49.355	0.932072
09:26:49.656	0.912179
09:26:50.056	0.925768
09:26:50.356	0.928030
09:26:50.756	0.915933
09:26:51.056	0.910817
09:26:51.456	0.941988
09:26:51.756	0.954488
09:26:52.156	1.006873
09:26:52.455	0.965178
09:26:52.856	1.038827
09:26:53.156	1.053783
09:26:53.456	1.000981
09:26:53.856	0.960469
09:26:54.156	0.952300
09:26:54.456	0.965325
09:26:54.856	0.982252
09:26:55.156	1.008238
09:26:55.556	1.004792
09:26:55.856	0.999189
09:26:56.256	1.027305
09:26:56.555	1.046827
09:26:56.956	1.025091
09:26:57.256	1.011133
09:26:57.656	1.056907
09:26:57.956	1.053884
09:26:58.355	1.034932
09:26:58.656	1.025875
09:26:59.056	0.961635
09:26:59.355	0.921448
09:26:59.756	0.921406
09:27:00.056	0.922464
09:27:00.357	0.901718
09:27:00.756	0.940842
09:27:01.056	0.971416
09:27:01.455	0.991084
09:27:01.756	0.971457
09:27:02.156	0.981863
09:27:02.455	0.970875
09:27:02.856	0.916277
09:27:03.156	0.849078
09:27:03.556	0.892569
09:27:03.855	0.876114
09:27:04.155	0.832958
09:27:04.556	0.837530
09:27:04.855	0.824664
09:27:05.255	0.832455
09:27:05.556	0.847584
09:27:05.956	0.825307
09:27:06.256	0.758200
09:27:06.656	0.743163
09:27:06.956	0.845366
09:27:07.355	0.795901
09:27:07.656	0.877370
09:27:08.056	0.829016
09:27:08.355	0.819149
09:27:08.756	0.806901
09:27:09.056	0.768676
09:27:09.455	0.784914
09:27:09.756	0.804430
09:27:10.156	0.813647
09:27:10.456	0.831141
09:27:10.856	0.855187
09:27:11.156	0.849750
09:27:11.456	0.885752
09:27:11.856	0.901604
09:27:12.156	0.922316
09:27:12.556	0.920890
09:27:12.856	0.913115
09:27:13.256	0.897606
09:27:13.556	0.937996
09:27:13.956	0.918891
09:27:14.255	0.977660
09:27:14.656	0.988795
09:27:14.956	0.992917
09:27:15.356	1.031911
09:27:15.656	1.043243
09:27:16.056	1.007167
09:27:16.355	1.005085
09:27:16.756	1.139566
09:27:17.055	1.183005
09:27:17.455	1.198546
09:27:17.756	1.173536
09:27:18.156	1.142275
09:27:18.456	1.181433
09:27:18.855	1.170799
09:27:19.156	1.164204
09:27:19.456	1.148112
09:27:19.855	1.074501
09:27:20.155	1.038987
09:27:20.556	1.056375
09:27:20.956	1.054644
09:27:21.256	1.073407
09:27:21.655	1.050100
09:27:21.956	1.092525
09:27:22.356	1.090786
09:27:22.657	1.112828
09:27:23.056	1.085954
09:27:23.356	1.080215
09:27:23.656	1.050394
09:27:24.056	1.073146
09:27:24.356	1.044985
09:27:24.756	1.035392
09:27:25.056	1.057612
09:27:25.456	1.060072
09:27:25.755	1.039126
09:27:26.156	1.022461
09:27:26.456	0.986368
09:27:26.855	0.991492
09:27:27.156	0.979571
09:27:27.556	0.936204
09:27:27.856	0.928059
09:27:28.256	0.925615
09:27:28.555	0.962439
09:27:28.956	0.982864
09:27:29.256	0.969920
09:27:29.656	1.034746
09:27:29.956	1.088752
09:27:30.356	1.102676
09:27:30.656	1.125419
09:27:31.055	1.148404
09:27:31.356	1.164330
09:27:31.656	1.180755
09:27:32.056	1.165517
09:27:32.355	1.215022
09:27:32.756	1.239913
09:27:33.055	1.285765
09:27:33.455	1.297983
09:27:33.756	1.277106
09:27:34.156	1.243796
09:27:34.456	1.335324
09:27:34.856	1.390738
09:27:35.156	1.408540
09:27:35.556	1.464263
09:27:35.856	1.495946
09:27:36.256	1.499997
09:27:36.556	1.523317
09:27:36.956	1.622490
09:27:37.255	1.631579
09:27:37.556	1.604321
09:27:37.956	1.629537
09:27:38.256	1.643104
09:27:38.656	1.636330
09:27:39.056	1.695359
09:27:39.356	1.694168
09:27:39.756	1.648378
09:27:40.056	1.694748
09:27:40.455	1.667889
09:27:40.756	1.695034
09:27:41.156	1.693421
09:27:41.456	1.643104
09:27:41.856	1.668443
09:27:42.155	1.693833
09:27:42.556	1.709076
09:27:42.855	1.719275
09:27:43.256	1.787423
09:27:43.556	1.764461
09:27:43.956	1.769838
09:27:44.256	1.754963
09:27:44.656	1.750641
09:27:44.956	1.773565
09:27:45.356	1.790244
09:27:45.656	1.793453
09:27:46.056	1.804843
09:27:46.355	1.818088
09:27:46.756	1.742275
09:27:47.056	1.761851
09:27:47.456	1.754385
09:27:47.756	1.747297
09:27:48.156	1.728935
09:27:48.456	1.695209
09:27:48.856	1.661654
09:27:49.156	1.649767
09:27:49.556	1.642574
09:27:49.856	1.648162
09:27:50.255	1.640279
09:27:50.556	1.602585
09:27:50.956	1.559282
09:27:51.256	1.468490
09:27:51.656	1.480772
09:27:51.956	1.469958
09:27:52.356	1.431591
09:27:52.656	1.397944
09:27:53.056	1.371845
09:27:53.356	1.339176
09:27:53.757	1.279865
09:27:54.056	1.272326
09:27:54.456	1.232922
09:27:54.756	1.213489
09:27:55.156	1.195084
09:27:55.456	1.263754
09:27:55.856	1.253608
09:27:56.156	1.234547
09:27:56.556	1.132624
09:27:56.856	1.098851
09:27:57.256	1.075908
09:27:57.555	1.082561
09:27:57.956	1.062142
09:27:58.256	1.048499
09:27:58.656	1.051979
09:27:58.956	1.037092
09:27:59.356	1.017963
09:27:59.656	1.025249
09:28:00.056	1.045871
09:28:00.356	1.066730
09:28:00.756	1.016156
09:28:01.056	0.989382
09:28:01.456	0.966459
09:28:01.756	0.951435
09:28:02.156	0.940892
09:28:02.456	0.938013
09:28:02.856	0.939731
09:28:03.256	0.929258
09:28:03.556	0.943160
09:28:03.856	0.941448
09:28:04.256	0.910365
09:28:04.556	0.879348
09:28:04.956	0.844626
09:28:05.256	0.828071
09:28:05.656	0.838535
09:28:05.956	0.833639
09:28:06.357	0.824768
09:28:06.656	0.807409
09:28:07.056	0.820845
09:28:07.356	0.802821
09:28:07.756	0.778927
09:28:08.056	0.786246
09:28:08.456	0.774146
09:28:08.756	0.755142
09:28:09.156	0.745771
09:28:09.456	0.703677
09:28:09.857	0.713022
09:28:10.156	0.708288
09:28:10.556	0.685387
09:28:10.856	0.676381
09:28:11.256	0.716415
09:28:11.556	0.729946
09:28:11.956	0.706829
09:28:12.256	0.717372
09:28:12.656	0.720734
09:28:12.956	0.726145
09:28:13.356	0.714949
09:28:13.656	0.739962
09:28:14.056	0.730782
09:28:14.356	0.757316
09:28:14.656	0.765005
09:28:15.057	0.767154
09:28:15.356	0.789908
09:28:15.756	0.810886
09:28:16.056	0.816142
09:28:16.456	0.840227
09:28:16.757	0.856150
09:28:17.156	0.854096
09:28:17.457	0.828987
09:28:17.856	0.801623
09:28:18.156	0.810155
09:28:18.557	0.860770
09:28:18.856	0.817692
09:28:19.256	0.832786
09:28:19.557	0.837857
09:28:19.956	0.817292
09:28:20.256	0.804961
09:28:20.657	0.764054
09:28:20.957	0.755380
09:28:21.356	0.720888
09:28:21.656	0.698290
09:28:22.056	0.712284
09:28:22.356	0.704757
09:28:22.756	0.659183
09:28:23.056	0.696148
09:28:23.456	0.703724
09:28:23.756	0.692575
09:28:24.156	0.659676
09:28:24.457	0.624417
09:28:24.856	0.605393
09:28:25.156	0.625430
09:28:25.557	0.655964
09:28:25.856	0.637405
09:28:26.256	0.659396
09:28:26.556	0.636238
09:28:26.956	0.613425
09:28:27.256	0.610971
09:28:27.656	0.600123
09:28:27.957	0.592519
09:28:28.357	0.592229
09:28:28.657	0.595493
09:28:29.056	0.596974
09:28:29.356	0.574619
09:28:29.756	0.561733
09:28:30.056	0.539739
09:28:30.457	0.599944
09:28:30.756	0.605494
09:28:31.057	0.593269
09:28:31.457	0.622959
09:28:31.756	0.584274
09:28:32.156	0.624136
09:28:32.456	0.610942
09:28:32.857	0.614670
09:28:33.156	0.583841
09:28:33.556	0.556167
09:28:33.856	0.565895
09:28:34.257	0.567663
09:28:34.556	0.581796
09:28:34.957	0.617542
09:28:35.256	0.618549
09:28:35.656	0.653644
09:28:35.956	0.654505
09:28:36.356	0.662628