Chart Recorder Data File Fri, Sep 20, 2024 11:28 AM
Time (s)	CH1 (V)  
11:15:48.292	-0.058685
11:15:49.092	-0.059321
11:15:49.392	-0.058212
11:15:49.791	-0.059499
11:15:50.092	-0.059816
11:15:50.492	-0.057637
11:15:50.792	-0.058878
11:15:51.192	-0.058060
11:15:51.492	-0.057594
11:15:51.892	-0.057606
11:15:52.191	-0.059118
11:15:52.591	-0.061264
11:15:52.892	-0.059259
11:15:53.292	-0.058868
11:15:53.592	-0.059093
11:15:53.992	-0.057738
11:15:54.292	-0.058585
11:15:54.692	-0.059651
11:15:54.992	-0.058724
11:15:55.391	-0.058974
11:15:55.692	-0.058041
11:15:56.092	-0.060003
11:15:56.392	-0.059223
11:15:56.792	-0.056465
11:15:57.092	-0.058494
11:15:57.492	-0.061390
11:15:57.792	-0.059995
11:15:58.192	-0.057896
11:15:58.492	-0.056005
11:15:58.892	-0.058831
11:15:59.192	-0.058348
11:15:59.592	-0.058485
11:15:59.891	-0.057804
11:16:00.291	-0.057729
11:16:00.592	-0.057188
11:16:00.991	-0.057472
11:16:01.292	-0.058493
11:16:01.692	-0.058790
11:16:01.992	-0.058529
11:16:02.392	-0.057526
11:16:02.692	-0.059290
11:16:03.092	-0.058224
11:16:03.392	-0.058601
11:16:03.792	-0.058643
11:16:04.092	-0.057677
11:16:04.492	-0.057662
11:16:04.792	-0.058869
11:16:05.192	-0.059253
11:16:05.491	-0.057917
11:16:05.892	-0.057054
11:16:06.192	-0.059155
11:16:06.592	-0.058670
11:16:06.892	-0.059531
11:16:07.192	-0.058378
11:16:07.592	-0.058811
11:16:07.992	-0.057500
11:16:08.292	-0.057306
11:16:08.692	-0.059918
11:16:08.992	-0.057575
11:16:09.392	-0.058338
11:16:09.692	-0.058781
11:16:10.092	-0.059311
11:16:10.392	-0.058486
11:16:10.792	-0.057862
11:16:11.092	-0.057555
11:16:11.492	-0.060521
11:16:11.792	-0.058671
11:16:12.192	-0.058619
11:16:12.491	-0.059281
11:16:12.892	-0.057188
11:16:13.192	-0.058036
11:16:13.592	-0.059397
11:16:13.892	-0.059541
11:16:14.292	-0.058805
11:16:14.592	-0.058329
11:16:14.992	-0.058978
11:16:15.292	-0.060815
11:16:15.692	-0.056855
11:16:15.992	-0.057982
11:16:16.292	-0.058284
11:16:16.692	-0.058072
11:16:16.992	-0.059204
11:16:17.392	-0.056799
11:16:17.692	-0.054129
11:16:17.992	-0.047955
11:16:18.392	-0.017787
11:16:18.692	0.043205
11:16:19.092	0.100211
11:16:19.392	0.127491
11:16:19.792	0.153356
11:16:20.092	0.147841
11:16:20.492	0.099686
11:16:20.792	0.068698
11:16:21.192	0.013851
11:16:21.492	-0.028751
11:16:21.892	-0.050173
11:16:22.192	-0.054556
11:16:22.592	-0.057610
11:16:22.892	-0.060097
11:16:23.192	-0.060792
11:16:23.592	-0.059001
11:16:23.892	-0.059257
11:16:24.192	-0.058871
11:16:24.592	-0.057314
11:16:24.892	-0.059828
11:16:25.192	-0.058437
11:16:25.592	-0.059139
11:16:25.892	-0.059960
11:16:26.292	-0.058840
11:16:26.592	-0.058841
11:16:26.992	-0.060001
11:16:27.292	-0.060462
11:16:27.692	-0.059703
11:16:27.992	-0.059561
11:16:28.392	-0.060444
11:16:28.692	-0.058557
11:16:28.992	-0.059518
11:16:29.392	-0.060826
11:16:29.692	-0.059990
11:16:29.992	-0.058940
11:16:30.392	-0.059422
11:16:30.692	-0.060884
11:16:30.992	-0.059423
11:16:31.392	-0.056928
11:16:31.692	-0.057797
11:16:31.992	-0.061281
11:16:32.392	-0.060483
11:16:32.692	-0.059144
11:16:33.092	-0.059053
11:16:33.393	-0.058722
11:16:33.792	-0.062183
11:16:34.092	-0.062084
11:16:34.492	-0.058542
11:16:34.792	-0.060217
11:16:35.193	-0.056292
11:16:35.492	-0.057400
11:16:35.892	-0.061039
11:16:36.192	-0.061690
11:16:36.592	-0.059411
11:16:36.893	-0.060973
11:16:37.193	-0.059791
11:16:37.592	-0.058759
11:16:37.893	-0.059429
11:16:38.192	-0.058369
11:16:38.592	-0.059578
11:16:38.892	-0.059652
11:16:39.192	-0.060628
11:16:39.592	-0.059123
11:16:39.893	-0.059587
11:16:40.292	-0.060753
11:16:40.592	-0.061081
11:16:40.992	-0.060633
11:16:41.293	-0.060627
11:16:41.693	-0.060073
11:16:41.993	-0.060109
11:16:42.393	-0.060699
11:16:42.692	-0.060694
11:16:43.092	-0.061168
11:16:43.392	-0.059984
11:16:43.792	-0.059287
11:16:44.092	-0.059302
11:16:44.492	-0.059692
11:16:44.792	-0.060673
11:16:45.092	-0.060657
11:16:45.492	-0.060486
11:16:45.792	-0.060405
11:16:46.192	-0.058134
11:16:46.492	-0.057918
11:16:46.893	-0.061242
11:16:47.193	-0.059928
11:16:47.592	-0.059896
11:16:47.892	-0.061344
11:16:48.193	-0.060707
11:16:48.592	-0.059637
11:16:48.892	-0.059689
11:16:49.292	-0.060506
11:16:49.592	-0.060394
11:16:49.993	-0.058972
11:16:50.292	-0.061157
11:16:50.693	-0.059879
11:16:50.992	-0.061038
11:16:51.294	-0.062059
11:16:51.693	-0.061228
11:16:51.993	-0.061253
11:16:52.292	-0.059920
11:16:52.692	-0.059156
11:16:52.992	-0.059195
11:16:53.393	-0.061291
11:16:53.693	-0.061131
11:16:54.093	-0.059461
11:16:54.392	-0.059198
11:16:54.793	-0.060282
11:16:55.092	-0.060639
11:16:55.392	-0.060421
11:16:55.793	-0.059271
11:16:56.093	-0.060127
11:16:56.492	-0.061095
11:16:56.792	-0.059385
11:16:57.193	-0.060425
11:16:57.492	-0.059766
11:16:57.893	-0.059931
11:16:58.192	-0.060996
11:16:58.593	-0.061187
11:16:58.892	-0.060552
11:16:59.193	-0.058770
11:16:59.592	-0.059281
11:16:59.892	-0.060445
11:17:00.192	-0.059932
11:17:00.593	-0.059124
11:17:00.892	-0.060370
11:17:01.294	-0.059099
11:17:01.593	-0.062376
11:17:01.993	-0.059006
11:17:02.292	-0.060450
11:17:02.692	-0.060315
11:17:02.993	-0.060604
11:17:03.393	-0.058713
11:17:03.692	-0.062547
11:17:04.093	-0.061359
11:17:04.392	-0.061242
11:17:04.792	-0.060384
11:17:05.093	-0.060420
11:17:05.392	-0.059353
11:17:05.793	-0.060374
11:17:06.092	-0.060335
11:17:06.393	-0.058430
11:17:06.792	-0.060719
11:17:07.092	-0.059675
11:17:07.493	-0.059364
11:17:07.893	-0.060321
11:17:08.293	-0.059904
11:17:08.593	-0.059881
11:17:08.992	-0.059630
11:17:09.293	-0.060933
11:17:09.692	-0.059782
11:17:09.992	-0.060733
11:17:10.393	-0.057783
11:17:10.692	-0.060881
11:17:11.092	-0.061103
11:17:11.392	-0.061608
11:17:11.792	-0.060442
11:17:12.093	-0.060505
11:17:12.492	-0.058874
11:17:12.792	-0.058835
11:17:13.192	-0.062335
11:17:13.492	-0.059501
11:17:13.892	-0.058500
11:17:14.193	-0.062014
11:17:14.592	-0.060467
11:17:14.893	-0.060729
11:17:15.293	-0.060568
11:17:15.592	-0.060834
11:17:15.993	-0.061134
11:17:16.293	-0.061394
11:17:16.692	-0.060501
11:17:16.993	-0.059733
11:17:17.392	-0.060296
11:17:17.692	-0.060682
11:17:18.093	-0.059181
11:17:18.393	-0.061402
11:17:18.793	-0.060651
11:17:19.093	-0.059792
11:17:19.493	-0.060060
11:17:19.792	-0.060566
11:17:20.093	-0.061126
11:17:20.493	-0.061578
11:17:20.792	-0.059782
11:17:21.193	-0.061840
11:17:21.492	-0.059882
11:17:21.893	-0.059731
11:17:22.193	-0.059547
11:17:22.493	-0.061133
11:17:22.892	-0.060336
11:17:23.193	-0.058445
11:17:23.593	-0.060539
11:17:23.892	-0.060006
11:17:24.292	-0.062358
11:17:24.592	-0.062166
11:17:24.992	-0.060325
11:17:25.293	-0.060075
11:17:25.693	-0.060262
11:17:25.993	-0.059673
11:17:26.393	-0.060689
11:17:26.692	-0.058713
11:17:27.093	-0.057986
11:17:27.393	-0.058221
11:17:27.692	-0.060395
11:17:28.092	-0.060361
11:17:28.393	-0.060801
11:17:28.792	-0.059380
11:17:29.092	-0.060032
11:17:29.392	-0.058051
11:17:29.792	-0.061001
11:17:30.092	-0.059379
11:17:30.493	-0.060962
11:17:30.793	-0.057411
11:17:31.193	-0.060960
11:17:31.492	-0.060325
11:17:31.893	-0.060971
11:17:32.192	-0.060933
11:17:32.593	-0.057985
11:17:32.893	-0.059556
11:17:33.193	-0.058513
11:17:33.592	-0.060256
11:17:33.892	-0.061133
11:17:34.292	-0.061014
11:17:34.593	-0.059278
11:17:34.992	-0.059406
11:17:35.293	-0.059729
11:17:35.693	-0.059544
11:17:35.993	-0.059975
11:17:36.392	-0.058064
11:17:36.692	-0.061070
11:17:37.092	-0.060691
11:17:37.393	-0.061906
11:17:37.693	-0.059244
11:17:38.093	-0.059539
11:17:38.393	-0.060694
11:17:38.793	-0.060226
11:17:39.093	-0.060548
11:17:39.492	-0.059751
11:17:39.793	-0.059697
11:17:40.193	-0.060522
11:17:40.493	-0.059142
11:17:40.893	-0.060286
11:17:41.193	-0.059255
11:17:41.492	-0.060692
11:17:41.893	-0.059848
11:17:42.193	-0.060597
11:17:42.592	-0.061452
11:17:42.892	-0.060208
11:17:43.293	-0.059910
11:17:43.592	-0.060007
11:17:43.992	-0.059476
11:17:44.293	-0.059467
11:17:44.692	-0.060858
11:17:44.993	-0.061174
11:17:45.393	-0.059559
11:17:45.693	-0.059079
11:17:46.093	-0.058484
11:17:46.392	-0.060897
11:17:46.793	-0.060578
11:17:47.092	-0.060743
11:17:47.492	-0.059866
11:17:47.792	-0.060055
11:17:48.192	-0.059778
11:17:48.493	-0.059852
11:17:48.893	-0.060829
11:17:49.193	-0.059064
11:17:49.493	-0.059643
11:17:49.893	-0.057742
11:17:50.193	-0.060320
11:17:50.593	-0.060679
11:17:50.893	-0.059377
11:17:51.292	-0.058363
11:17:51.593	-0.059441
11:17:51.992	-0.059275
11:17:52.292	-0.056621
11:17:52.693	-0.056856
11:17:52.992	-0.058488
11:17:53.393	-0.055785
11:17:53.692	-0.057515
11:17:54.093	-0.058568
11:17:54.393	-0.059698
11:17:54.693	-0.058365
11:17:55.093	-0.059732
11:17:55.393	-0.059972
11:17:55.693	-0.060480
11:17:56.093	-0.060625
11:17:56.393	-0.058951
11:17:56.693	-0.058373
11:17:57.092	-0.060672
11:17:57.393	-0.059155
11:17:57.693	-0.058888
11:17:58.093	-0.059411
11:17:58.393	-0.060354
11:17:58.793	-0.058527
11:17:59.092	-0.060008
11:17:59.392	-0.058582
11:17:59.793	-0.057494
11:18:00.193	-0.060011
11:18:00.493	-0.060802
11:18:00.893	-0.059129
11:18:01.192	-0.059420
11:18:01.593	-0.060700
11:18:01.893	-0.060049
11:18:02.293	-0.059955
11:18:02.593	-0.060597
11:18:02.893	-0.061201
11:18:03.292	-0.059821
11:18:03.592	-0.061012
11:18:03.892	-0.060495
11:18:04.292	-0.058646
11:18:04.592	-0.058645
11:18:04.893	-0.059710
11:18:05.293	-0.059251
11:18:05.593	-0.058892
11:18:05.993	-0.058896
11:18:06.293	-0.060309
11:18:06.693	-0.060978
11:18:06.993	-0.061380
11:18:07.392	-0.060750
11:18:07.692	-0.059214
11:18:08.093	-0.060522
11:18:08.393	-0.060326
11:18:08.793	-0.057649
11:18:09.093	-0.060000
11:18:09.493	-0.060008
11:18:09.793	-0.059400
11:18:10.193	-0.060506
11:18:10.492	-0.058960
11:18:10.892	-0.060224
11:18:11.192	-0.058855
11:18:11.593	-0.058722
11:18:11.893	-0.058181
11:18:12.193	-0.057790
11:18:12.593	-0.057024
11:18:12.893	-0.058383
11:18:13.293	-0.058340
11:18:13.593	-0.058394
11:18:13.893	-0.058809
11:18:14.292	-0.057814
11:18:14.593	-0.058608
11:18:14.993	-0.058772
11:18:15.293	-0.058205
11:18:15.693	-0.059766
11:18:15.993	-0.059420
11:18:16.393	-0.060631
11:18:16.693	-0.058794
11:18:16.993	-0.057973
11:18:17.393	-0.058672
11:18:17.693	-0.058529
11:18:17.992	-0.058738
11:18:18.393	-0.057098
11:18:18.692	-0.057549
11:18:19.092	-0.057722
11:18:19.393	-0.056297
11:18:19.792	-0.056506
11:18:20.092	-0.055894
11:18:20.493	-0.056479
11:18:20.793	-0.054512
11:18:21.193	-0.054936
11:18:21.493	-0.055803
11:18:21.892	-0.055991
11:18:22.192	-0.055325
11:18:22.593	-0.055141
11:18:22.893	-0.052662
11:18:23.293	-0.054176
11:18:23.593	-0.052614
11:18:23.993	-0.055469
11:18:24.293	-0.054421
11:18:24.693	-0.053746
11:18:24.992	-0.052890
11:18:25.392	-0.053427
11:18:25.693	-0.054208
11:18:26.093	-0.053092
11:18:26.393	-0.053054
11:18:26.692	-0.054274
11:18:27.093	-0.054428
11:18:27.393	-0.053266
11:18:27.693	-0.058817
11:18:28.092	-0.056790
11:18:28.393	-0.058444
11:18:28.793	-0.059414
11:18:29.093	-0.059670
11:18:29.493	-0.060740
11:18:29.792	-0.060409
11:18:30.193	-0.059532
11:18:30.492	-0.059557
11:18:30.893	-0.061121
11:18:31.192	-0.058771
11:18:31.593	-0.062303
11:18:31.893	-0.060945
11:18:32.292	-0.057967
11:18:32.592	-0.059887
11:18:32.993	-0.059628
11:18:33.293	-0.060613
11:18:33.693	-0.058717
11:18:33.993	-0.059615
11:18:34.393	-0.060449
11:18:34.693	-0.060995
11:18:35.092	-0.055677
11:18:35.393	-0.058386
11:18:35.793	-0.058910
11:18:36.093	-0.058857
11:18:36.493	-0.060031
11:18:36.793	-0.059422
11:18:37.093	-0.058654
11:18:37.493	-0.059674
11:18:37.793	-0.060200
11:18:38.193	-0.060872
11:18:38.493	-0.059808
11:18:38.792	-0.058162
11:18:39.193	-0.060242
11:18:39.492	-0.058286
11:18:39.893	-0.059780
11:18:40.193	-0.060251
11:18:40.593	-0.058736
11:18:40.893	-0.059743
11:18:41.293	-0.057601
11:18:41.592	-0.059211
11:18:41.993	-0.058063
11:18:42.293	-0.060322
11:18:42.693	-0.057468
11:18:42.993	-0.060074
11:18:43.393	-0.059149
11:18:43.693	-0.057772
11:18:44.094	-0.058707
11:18:44.393	-0.057413
11:18:44.793	-0.056566
11:18:45.093	-0.051911
11:18:45.493	-0.044189
11:18:45.793	-0.012147
11:18:46.192	0.116033
11:18:46.493	0.201027
11:18:46.793	0.432408
11:18:47.193	0.443243
11:18:47.493	0.425525
11:18:47.892	0.314957
11:18:48.193	0.123515
11:18:48.593	-0.029876
11:18:48.893	-0.049539
11:18:49.293	-0.057131
11:18:49.592	-0.058344
11:18:49.994	-0.056779
11:18:50.293	-0.058544
11:18:50.692	-0.058309
11:18:50.992	-0.058647
11:18:51.393	-0.058374
11:18:51.693	-0.059935
11:18:52.092	-0.058988
11:18:52.393	-0.058143
11:18:52.793	-0.057346
11:18:53.092	-0.058880
11:18:53.493	-0.059561
11:18:53.793	-0.059268
11:18:54.093	-0.060777
11:18:54.492	-0.058328
11:18:54.793	-0.058414
11:18:55.093	-0.059329
11:18:55.493	-0.059888
11:18:55.793	-0.060568
11:18:56.192	-0.056794
11:18:56.493	-0.060540
11:18:56.893	-0.059032
11:18:57.193	-0.060311
11:18:57.593	-0.059519
11:18:57.893	-0.059920
11:18:58.292	-0.058228
11:18:58.593	-0.058800
11:18:58.893	-0.061057
11:18:59.293	-0.059547
11:18:59.593	-0.061070
11:18:59.892	-0.060363
11:19:00.293	-0.059584
11:19:00.593	-0.059463
11:19:00.893	-0.058921
11:19:01.293	-0.057172
11:19:01.592	-0.059196
11:19:01.993	-0.059577
11:19:02.292	-0.060177
11:19:02.693	-0.059862
11:19:02.993	-0.057052
11:19:03.393	-0.054526
11:19:03.693	-0.055616
11:19:04.093	-0.048759
11:19:04.393	-0.045341
11:19:04.793	-0.043318
11:19:05.093	-0.041236
11:19:05.493	-0.039568
11:19:05.793	-0.040565
11:19:06.193	-0.035823
11:19:06.493	-0.036101
11:19:06.892	-0.038518
11:19:07.193	-0.035828
11:19:07.593	-0.036282
11:19:07.893	-0.034234
11:19:08.293	-0.033766
11:19:08.693	-0.033370
11:19:08.993	-0.032171
11:19:09.393	-0.034074
11:19:09.693	-0.036892
11:19:10.093	-0.034254
11:19:10.393	-0.035925
11:19:10.793	-0.035755
11:19:11.093	-0.037937
11:19:11.493	-0.037964
11:19:11.793	-0.037388
11:19:12.193	-0.038827
11:19:12.493	-0.039076
11:19:12.893	-0.037170
11:19:13.193	-0.036266
11:19:13.593	-0.039041
11:19:13.893	-0.037409
11:19:14.293	-0.036741
11:19:14.593	-0.039867
11:19:14.993	-0.041988
11:19:15.293	-0.039332
11:19:15.693	-0.043422
11:19:15.993	-0.044443
11:19:16.393	-0.046655
11:19:16.693	-0.049677
11:19:17.093	-0.050137
11:19:17.393	-0.051242
11:19:17.793	-0.052842
11:19:18.093	-0.052656
11:19:18.493	-0.052389
11:19:18.793	-0.053072
11:19:19.193	-0.054111
11:19:19.493	-0.053989
11:19:19.893	-0.052741
11:19:20.193	-0.051389
11:19:20.593	-0.046673
11:19:20.892	-0.045802
11:19:21.293	-0.043592
11:19:21.593	-0.042232
11:19:21.993	-0.039914
11:19:22.293	-0.043889
11:19:22.693	-0.044841
11:19:22.993	-0.047406
11:19:23.393	-0.051305
11:19:23.693	-0.054117
11:19:24.093	-0.054646
11:19:24.393	-0.053637
11:19:24.793	-0.055024
11:19:25.093	-0.055112
11:19:25.493	-0.053178
11:19:25.793	-0.053256
11:19:26.193	-0.053223
11:19:26.493	-0.053176
11:19:26.893	-0.051610
11:19:27.193	-0.052699
11:19:27.593	-0.051072
11:19:27.893	-0.052714
11:19:28.293	-0.054230
11:19:28.593	-0.053445
11:19:28.993	-0.055291
11:19:29.293	-0.055338
11:19:29.694	-0.054138
11:19:29.993	-0.056017
11:19:30.393	-0.056205
11:19:30.693	-0.055699
11:19:31.094	-0.056152
11:19:31.393	-0.054952
11:19:31.794	-0.056580
11:19:32.093	-0.056608
11:19:32.493	-0.055075
11:19:32.793	-0.054761
11:19:33.093	-0.055765
11:19:33.494	-0.052949
11:19:33.793	-0.053900
11:19:34.193	-0.052125
11:19:34.493	-0.054778
11:19:34.893	-0.051734
11:19:35.193	-0.053116
11:19:35.594	-0.052057
11:19:35.893	-0.052743
11:19:36.294	-0.052456
11:19:36.593	-0.051570
11:19:36.993	-0.054411
11:19:37.293	-0.054819
11:19:37.693	-0.054631
11:19:37.993	-0.055013
11:19:38.393	-0.056699
11:19:38.693	-0.055557
11:19:39.093	-0.057412
11:19:39.394	-0.057130
11:19:39.793	-0.056309
11:19:40.093	-0.056345
11:19:40.493	-0.056127
11:19:40.793	-0.057061
11:19:41.193	-0.058469
11:19:41.493	-0.057012
11:19:41.894	-0.057188
11:19:42.194	-0.056951
11:19:42.593	-0.056791
11:19:42.894	-0.055269
11:19:43.194	-0.054799
11:19:43.594	-0.053474
11:19:43.894	-0.045804
11:19:44.193	-0.016870
11:19:44.593	0.010113
11:19:44.893	0.051948
11:19:45.293	0.074103
11:19:45.593	0.078116
11:19:45.994	0.062396
11:19:46.294	0.009951
11:19:46.694	-0.022081
11:19:46.993	-0.038289
11:19:47.394	-0.047601
11:19:47.694	-0.050725
11:19:48.094	-0.055513
11:19:48.393	-0.056132
11:19:48.793	-0.057760
11:19:49.093	-0.057345
11:19:49.493	-0.056083
11:19:49.793	-0.056647
11:19:50.193	-0.057909
11:19:50.493	-0.056666
11:19:50.893	-0.056522
11:19:51.193	-0.057337
11:19:51.493	-0.056864
11:19:51.893	-0.057682
11:19:52.193	-0.057179
11:19:52.494	-0.058007
11:19:52.893	-0.056413
11:19:53.193	-0.059301
11:19:53.593	-0.058200
11:19:53.893	-0.057761
11:19:54.294	-0.057929
11:19:54.594	-0.056371
11:19:54.993	-0.055657
11:19:55.293	-0.054955
11:19:55.694	-0.054856
11:19:55.994	-0.053813
11:19:56.394	-0.050486
11:19:56.693	-0.046696
11:19:57.094	-0.043770
11:19:57.394	-0.044494
11:19:57.794	-0.046231
11:19:58.094	-0.051164
11:19:58.394	-0.050979
11:19:58.794	-0.054207
11:19:59.093	-0.054356
11:19:59.493	-0.055245
11:19:59.793	-0.056929
11:20:00.194	-0.058985
11:20:00.493	-0.056670
11:20:00.894	-0.057531
11:20:01.193	-0.057252
11:20:01.594	-0.057871
11:20:01.893	-0.058278
11:20:02.293	-0.058205
11:20:02.593	-0.057808
11:20:02.994	-0.057689
11:20:03.293	-0.059016
11:20:03.694	-0.057811
11:20:03.993	-0.058362
11:20:04.394	-0.057773
11:20:04.694	-0.057811
11:20:05.094	-0.058922
11:20:05.393	-0.059325
11:20:05.793	-0.061336
11:20:06.093	-0.060254
11:20:06.494	-0.056604
11:20:06.794	-0.058006
11:20:07.194	-0.058267
11:20:07.494	-0.058602
11:20:07.893	-0.059613
11:20:08.193	-0.058622
11:20:08.593	-0.058867
11:20:08.994	-0.059821
11:20:09.293	-0.059876
11:20:09.694	-0.058654
11:20:09.994	-0.058765
11:20:10.394	-0.058175
11:20:10.693	-0.058833
11:20:11.093	-0.057828
11:20:11.394	-0.058302
11:20:11.793	-0.058365
11:20:12.094	-0.058904
11:20:12.394	-0.058322
11:20:12.794	-0.060678
11:20:13.093	-0.058021
11:20:13.494	-0.060056
11:20:13.794	-0.059923
11:20:14.193	-0.059313
11:20:14.493	-0.058440
11:20:14.894	-0.059719
11:20:15.193	-0.058432
11:20:15.493	-0.058195
11:20:15.893	-0.059193
11:20:16.194	-0.059143
11:20:16.594	-0.059097
11:20:16.893	-0.057697
11:20:17.293	-0.060186
11:20:17.593	-0.057524
11:20:17.993	-0.058442
11:20:18.293	-0.058640
11:20:18.694	-0.060471
11:20:18.994	-0.059201
11:20:19.295	-0.059087
11:20:19.694	-0.058741
11:20:19.993	-0.058970
11:20:20.294	-0.058406
11:20:20.694	-0.058241
11:20:20.994	-0.059843
11:20:21.394	-0.058032
11:20:21.694	-0.057933
11:20:22.094	-0.058263
11:20:22.393	-0.057471
11:20:22.794	-0.056226
11:20:23.094	-0.056457
11:20:23.494	-0.053322
11:20:23.794	-0.050124
11:20:24.194	-0.051020
11:20:24.494	-0.048986
11:20:24.893	-0.048943
11:20:25.193	-0.050397
11:20:25.594	-0.051441
11:20:25.894	-0.052469
11:20:26.294	-0.055305
11:20:26.594	-0.057232
11:20:26.994	-0.057435
11:20:27.294	-0.056398
11:20:27.594	-0.055575
11:20:27.994	-0.057178
11:20:28.293	-0.058127
11:20:28.693	-0.058899
11:20:28.994	-0.058641
11:20:29.393	-0.059502
11:20:29.694	-0.059134
11:20:30.093	-0.057100
11:20:30.394	-0.059413
11:20:30.793	-0.059332
11:20:31.094	-0.057085
11:20:31.494	-0.058635
11:20:31.794	-0.057460
11:20:32.193	-0.057662
11:20:32.494	-0.060065
11:20:32.894	-0.059035
11:20:33.194	-0.061525
11:20:33.494	-0.060696
11:20:33.894	-0.060976
11:20:34.193	-0.058901
11:20:34.494	-0.059394
11:20:34.894	-0.059214
11:20:35.193	-0.058095
11:20:35.594	-0.059447
11:20:35.893	-0.059848
11:20:36.294	-0.060178
11:20:36.593	-0.059788
11:20:36.994	-0.059716
11:20:37.294	-0.059161
11:20:37.694	-0.060270
11:20:37.994	-0.058736
11:20:38.394	-0.061269
11:20:38.694	-0.062427
11:20:39.094	-0.061343
11:20:39.393	-0.056718
11:20:39.794	-0.062063
11:20:40.094	-0.059123
11:20:40.494	-0.059776
11:20:40.794	-0.059155
11:20:41.193	-0.057350
11:20:41.493	-0.059440
11:20:41.793	-0.060168
11:20:42.194	-0.056789
11:20:42.494	-0.061181
11:20:42.794	-0.059925
11:20:43.193	-0.057618
11:20:43.493	-0.057814
11:20:43.894	-0.060506
11:20:44.193	-0.058499
11:20:44.594	-0.059722
11:20:44.894	-0.061972
11:20:45.294	-0.059968
11:20:45.593	-0.059728
11:20:45.994	-0.060228
11:20:46.293	-0.058159
11:20:46.594	-0.059215
11:20:46.994	-0.060111
11:20:47.293	-0.057188
11:20:47.594	-0.059118
11:20:47.994	-0.059088
11:20:48.294	-0.056074
11:20:48.694	-0.060454
11:20:48.993	-0.060207
11:20:49.394	-0.059432
11:20:49.693	-0.061756
11:20:50.095	-0.053999
11:20:50.393	-0.056980
11:20:50.794	-0.061079
11:20:51.093	-0.059613
11:20:51.493	-0.057608
11:20:51.794	-0.058810
11:20:52.194	-0.058755
11:20:52.494	-0.059068
11:20:52.894	-0.058399
11:20:53.194	-0.058751
11:20:53.594	-0.060460
11:20:53.893	-0.060019
11:20:54.293	-0.058862
11:20:54.593	-0.059922
11:20:54.895	-0.061083
11:20:55.294	-0.059453
11:20:55.594	-0.060180
11:20:55.893	-0.060299
11:20:56.294	-0.060360
11:20:56.595	-0.058138
11:20:56.894	-0.059205
11:20:57.294	-0.058954
11:20:57.594	-0.059698
11:20:57.993	-0.059424
11:20:58.294	-0.059028
11:20:58.693	-0.060098
11:20:58.994	-0.060355
11:20:59.394	-0.059238
11:20:59.693	-0.057552
11:21:00.094	-0.059499
11:21:00.395	-0.060246
11:21:00.794	-0.059829
11:21:01.094	-0.057301
11:21:01.493	-0.059646
11:21:01.794	-0.059238
11:21:02.194	-0.058677
11:21:02.494	-0.060027
11:21:02.794	-0.058971
11:21:03.194	-0.058276
11:21:03.493	-0.060324
11:21:03.894	-0.060276
11:21:04.194	-0.059991
11:21:04.594	-0.060296
11:21:04.894	-0.060330
11:21:05.294	-0.059540
11:21:05.593	-0.058170
11:21:05.994	-0.056694
11:21:06.293	-0.055070
11:21:06.694	-0.058456
11:21:06.993	-0.061133
11:21:07.394	-0.060004
11:21:07.694	-0.059871
11:21:07.994	-0.057230
11:21:08.394	-0.056977
11:21:08.693	-0.059403
11:21:09.094	-0.058720
11:21:09.394	-0.060188
11:21:09.694	-0.060653
11:21:10.094	-0.059838
11:21:10.394	-0.059589
11:21:10.794	-0.056412
11:21:11.094	-0.058349
11:21:11.494	-0.058513
11:21:11.794	-0.058414
11:21:12.193	-0.060601
11:21:12.494	-0.059818
11:21:12.894	-0.061014
11:21:13.194	-0.061386
11:21:13.593	-0.060406
11:21:13.894	-0.059712
11:21:14.294	-0.059717
11:21:14.594	-0.062400
11:21:14.894	-0.056788
11:21:15.294	-0.059082
11:21:15.593	-0.060026
11:21:15.994	-0.060547
11:21:16.394	-0.059589
11:21:16.694	-0.062211
11:21:16.993	-0.061723
11:21:17.394	-0.059093
11:21:17.693	-0.060364
11:21:18.093	-0.060607
11:21:18.394	-0.059478
11:21:18.694	-0.055239
11:21:19.094	-0.061462
11:21:19.393	-0.059198
11:21:19.793	-0.059362
11:21:20.095	-0.056650
11:21:20.493	-0.059565
11:21:20.793	-0.060207
11:21:21.194	-0.059160
11:21:21.493	-0.059208
11:21:21.894	-0.057727
11:21:22.193	-0.059389
11:21:22.594	-0.059238
11:21:22.894	-0.058531
11:21:23.294	-0.059282
11:21:23.593	-0.059478
11:21:23.894	-0.059534
11:21:24.294	-0.058058
11:21:24.594	-0.058901
11:21:24.994	-0.059404
11:21:25.294	-0.059664
11:21:25.694	-0.058616
11:21:25.994	-0.059240
11:21:26.394	-0.059517
11:21:26.694	-0.058518
11:21:27.094	-0.057905
11:21:27.394	-0.059508
11:21:27.794	-0.059721
11:21:28.094	-0.060568
11:21:28.394	-0.059594
11:21:28.794	-0.058918
11:21:29.094	-0.059815
11:21:29.493	-0.057017
11:21:29.793	-0.058620
11:21:30.194	-0.060232
11:21:30.494	-0.060197
11:21:30.894	-0.059381
11:21:31.194	-0.058748
11:21:31.593	-0.058859
11:21:31.893	-0.058949
11:21:32.294	-0.060029
11:21:32.594	-0.060809
11:21:32.995	-0.059385
11:21:33.294	-0.057997
11:21:33.694	-0.059885
11:21:33.994	-0.059682
11:21:34.393	-0.060218
11:21:34.694	-0.061530
11:21:35.094	-0.059943
11:21:35.394	-0.058864
11:21:35.793	-0.059052
11:21:36.094	-0.060530
11:21:36.494	-0.059237
11:21:36.794	-0.060113
11:21:37.194	-0.058962
11:21:37.494	-0.058170
11:21:37.893	-0.059370
11:21:38.194	-0.058559
11:21:38.594	-0.058797
11:21:38.894	-0.060178
11:21:39.294	-0.058185
11:21:39.593	-0.060956
11:21:39.994	-0.059413
11:21:40.294	-0.059189
11:21:40.694	-0.057497
11:21:40.993	-0.059949
11:21:41.293	-0.059920
11:21:41.694	-0.060107
11:21:41.994	-0.059635
11:21:42.394	-0.058588
11:21:42.693	-0.060137
11:21:43.093	-0.057940
11:21:43.394	-0.058330
11:21:43.794	-0.059741
11:21:44.094	-0.060740
11:21:44.494	-0.060852
11:21:44.794	-0.058016
11:21:45.194	-0.059824
11:21:45.494	-0.065527
11:21:45.894	-0.053175
11:21:46.194	-0.057711
11:21:46.593	-0.063135
11:21:46.893	-0.062651
11:21:47.194	-0.061257
11:21:47.593	-0.053305
11:21:47.894	-0.060136
11:21:48.194	-0.060598
11:21:48.594	-0.060112
11:21:48.894	-0.060105
11:21:49.294	-0.059081
11:21:49.593	-0.059845
11:21:49.993	-0.061838
11:21:50.294	-0.058358
11:21:50.694	-0.061250
11:21:50.993	-0.059595
11:21:51.393	-0.058615
11:21:51.694	-0.059751
11:21:51.994	-0.060198
11:21:52.394	-0.059178
11:21:52.694	-0.060051
11:21:53.094	-0.060277
11:21:53.393	-0.061853
11:21:53.794	-0.059132
11:21:54.094	-0.060107
11:21:54.394	-0.062555
11:21:54.794	-0.060218
11:21:55.094	-0.055933
11:21:55.494	-0.059323
11:21:55.794	-0.062949
11:21:56.194	-0.060501
11:21:56.494	-0.060762
11:21:56.893	-0.061200
11:21:57.194	-0.057674
11:21:57.594	-0.059459
11:21:57.893	-0.063601
11:21:58.294	-0.058345
11:21:58.594	-0.055178
11:21:58.994	-0.060016
11:21:59.294	-0.059160
11:21:59.694	-0.063204
11:21:59.994	-0.060602
11:22:00.294	-0.056823
11:22:00.694	-0.059827
11:22:00.994	-0.059152
11:22:01.294	-0.058860
11:22:01.693	-0.060464
11:22:01.994	-0.060034
11:22:02.394	-0.058934
11:22:02.694	-0.060100
11:22:03.094	-0.057218
11:22:03.394	-0.058149
11:22:03.793	-0.056533
11:22:04.094	-0.059346
11:22:04.494	-0.054455
11:22:04.793	-0.057042
11:22:05.094	-0.058405
11:22:05.494	-0.059337
11:22:05.794	-0.057246
11:22:06.094	-0.057905
11:22:06.494	-0.060132
11:22:06.794	-0.059188
11:22:07.194	-0.057750
11:22:07.493	-0.057737
11:22:07.894	-0.060534
11:22:08.193	-0.058861
11:22:08.594	-0.057472
11:22:08.894	-0.060615
11:22:09.294	-0.061703
11:22:09.594	-0.059057
11:22:09.993	-0.053384
11:22:10.294	-0.056234
11:22:10.694	-0.051363
11:22:10.994	-0.052520
11:22:11.393	-0.048385
11:22:11.694	-0.047585
11:22:12.094	-0.042695
11:22:12.394	-0.036724
11:22:12.794	-0.030267
11:22:13.094	-0.029405
11:22:13.494	-0.031055
11:22:13.793	-0.037026
11:22:14.094	-0.046128
11:22:14.494	-0.050249
11:22:14.794	-0.052202
11:22:15.094	-0.054777
11:22:15.494	-0.054028
11:22:15.794	-0.056988
11:22:16.194	-0.059439
11:22:16.494	-0.058198
11:22:16.894	-0.059692
11:22:17.194	-0.061158
11:22:17.594	-0.059947
11:22:17.894	-0.059510
11:22:18.294	-0.063191
11:22:18.594	-0.057493
11:22:18.994	-0.061996
11:22:19.294	-0.059556
11:22:19.694	-0.058854
11:22:19.995	-0.055258
11:22:20.294	-0.056956
11:22:20.694	-0.059228
11:22:20.994	-0.060496
11:22:21.294	-0.059840
11:22:21.694	-0.058745
11:22:21.994	-0.059516
11:22:22.394	-0.059194
11:22:22.694	-0.059235
11:22:23.094	-0.057118
11:22:23.394	-0.059263
11:22:23.794	-0.058267
11:22:24.094	-0.058655
11:22:24.494	-0.060522
11:22:24.794	-0.059418
11:22:25.194	-0.059094
11:22:25.494	-0.059755
11:22:25.894	-0.058891
11:22:26.194	-0.058769
11:22:26.494	-0.056885
11:22:26.894	-0.060412
11:22:27.195	-0.062624
11:22:27.594	-0.060570
11:22:27.894	-0.056037
11:22:28.194	-0.062235
11:22:28.594	-0.058548
11:22:28.894	-0.064973
11:22:29.294	-0.060495
11:22:29.594	-0.060176
11:22:29.994	-0.058438
11:22:30.294	-0.061861
11:22:30.694	-0.058687
11:22:30.994	-0.057731
11:22:31.394	-0.059751
11:22:31.695	-0.064382
11:22:32.094	-0.060820
11:22:32.394	-0.062185
11:22:32.794	-0.055341
11:22:33.094	-0.059760
11:22:33.394	-0.061086
11:22:33.794	-0.059407
11:22:34.094	-0.059151
11:22:34.494	-0.061165
11:22:34.894	-0.060324
11:22:35.194	-0.062282
11:22:35.494	-0.060188
11:22:35.895	-0.060447
11:22:36.194	-0.059709
11:22:36.594	-0.059639
11:22:36.894	-0.060350
11:22:37.294	-0.061943
11:22:37.594	-0.060225
11:22:37.995	-0.060587
11:22:38.295	-0.060350
11:22:38.694	-0.059908
11:22:38.994	-0.059196
11:22:39.394	-0.059975
11:22:39.694	-0.062333
11:22:40.095	-0.060656
11:22:40.394	-0.058334
11:22:40.794	-0.060808
11:22:41.095	-0.061487
11:22:41.494	-0.059505
11:22:41.794	-0.058019
11:22:42.194	-0.060503
11:22:42.494	-0.059856
11:22:42.894	-0.061721