Chart Recorder Data File Fri, Sep 20, 2024 3:25 PM
Time (s)	CH1 (V)  
15:16:18.374	0.582189
15:16:19.174	0.568001
15:16:19.476	0.548851
15:16:19.874	0.503011
15:16:20.174	0.507494
15:16:20.575	0.483169
15:16:20.874	0.476483
15:16:21.175	0.475733
15:16:21.575	0.477798
15:16:21.874	0.496267
15:16:22.174	0.493693
15:16:22.575	0.496835
15:16:22.874	0.497418
15:16:23.175	0.461476
15:16:23.574	0.442508
15:16:23.874	0.434654
15:16:24.174	0.436911
15:16:24.574	0.436314
15:16:24.874	0.440212
15:16:25.174	0.447013
15:16:25.574	0.446989
15:16:25.874	0.436163
15:16:26.175	0.440231
15:16:26.576	0.409558
15:16:26.874	0.383175
15:16:27.274	0.445099
15:16:27.575	0.434361
15:16:27.974	0.383769
15:16:28.274	0.386597
15:16:28.575	0.380349
15:16:28.974	0.363239
15:16:29.275	0.381135
15:16:29.575	0.408427
15:16:29.975	0.422456
15:16:30.274	0.438490
15:16:30.675	0.400225
15:16:30.974	0.395272
15:16:31.374	0.401466
15:16:31.675	0.429783
15:16:31.975	0.412797
15:16:32.375	0.423862
15:16:32.675	0.437498
15:16:33.075	0.449791
15:16:33.374	0.426431
15:16:33.775	0.435604
15:16:34.074	0.427004
15:16:34.375	0.407301
15:16:34.775	0.415674
15:16:35.075	0.412183
15:16:35.375	0.406715
15:16:35.774	0.411982
15:16:36.074	0.431267
15:16:36.375	0.459982
15:16:36.775	0.435895
15:16:37.074	0.432490
15:16:37.375	0.466253
15:16:37.775	0.511165
15:16:38.075	0.493397
15:16:38.375	0.468659
15:16:38.774	0.453783
15:16:39.075	0.493578
15:16:39.475	0.476345
15:16:39.774	0.510574
15:16:40.075	0.438116
15:16:40.474	0.425573
15:16:40.774	0.422009
15:16:41.174	0.530306
15:16:41.475	0.509936
15:16:41.875	0.429817
15:16:42.175	0.452178
15:16:42.575	0.537951
15:16:42.875	0.540792
15:16:43.175	0.518293
15:16:43.574	0.510634
15:16:43.875	0.533439
15:16:44.174	0.453730
15:16:44.574	0.417390
15:16:44.875	0.444035
15:16:45.175	0.473233
15:16:45.575	0.438327
15:16:45.875	0.473660
15:16:46.174	0.529060
15:16:46.574	0.434020
15:16:46.875	0.354397
15:16:47.175	0.428852
15:16:47.575	0.487223
15:16:47.874	0.445139
15:16:48.175	0.449987
15:16:48.575	0.447114
15:16:48.875	0.514551
15:16:49.175	0.469016
15:16:49.576	0.379293
15:16:49.875	0.394935
15:16:50.275	0.439808
15:16:50.575	0.414726
15:16:50.975	0.425240
15:16:51.274	0.464949
15:16:51.676	0.358223
15:16:51.976	0.413113
15:16:52.374	0.437008
15:16:52.675	0.448064
15:16:52.974	0.505569
15:16:53.374	0.419326
15:16:53.675	0.384243
15:16:54.076	0.362527
15:16:54.375	0.333588
15:16:54.775	0.376137
15:16:55.074	0.453882
15:16:55.375	0.390860
15:16:55.774	0.475605
15:16:56.075	0.391503
15:16:56.375	0.351160
15:16:56.774	0.375600
15:16:57.074	0.395668
15:16:57.374	0.380690
15:16:57.774	0.388589
15:16:58.074	0.372008
15:16:58.474	0.362969
15:16:58.775	0.338238
15:16:59.175	0.345034
15:16:59.475	0.351645
15:16:59.875	0.365061
15:17:00.174	0.357353
15:17:00.474	0.361162
15:17:00.874	0.342952
15:17:01.175	0.336698
15:17:01.575	0.420103
15:17:01.874	0.469160
15:17:02.274	0.343206
15:17:02.575	0.327338
15:17:02.874	0.360708
15:17:03.275	0.310181
15:17:03.575	0.307117
15:17:03.975	0.311312
15:17:04.275	0.332153
15:17:04.574	0.394908
15:17:04.975	0.379005
15:17:05.275	0.382785
15:17:05.675	0.398935
15:17:05.975	0.391755
15:17:06.375	0.387669
15:17:06.674	0.362737
15:17:06.974	0.353681
15:17:07.374	0.339678
15:17:07.675	0.357584
15:17:08.075	0.405242
15:17:08.375	0.376468
15:17:08.775	0.396635
15:17:09.074	0.412295
15:17:09.374	0.416252
15:17:09.775	0.410770
15:17:10.075	0.408870
15:17:10.375	0.388105
15:17:10.775	0.387101
15:17:11.075	0.380340
15:17:11.374	0.388632
15:17:11.776	0.388218
15:17:12.074	0.405838
15:17:12.474	0.410365
15:17:12.775	0.412263
15:17:13.174	0.397670
15:17:13.475	0.379391
15:17:13.775	0.363050
15:17:14.175	0.351126
15:17:14.474	0.349186
15:17:14.875	0.356535
15:17:15.175	0.366512
15:17:15.575	0.408833
15:17:15.875	0.383616
15:17:16.275	0.409023
15:17:16.575	0.410738
15:17:16.876	0.396280
15:17:17.275	0.381744
15:17:17.575	0.364363
15:17:17.875	0.379869
15:17:18.275	0.383904
15:17:18.575	0.406775
15:17:18.875	0.386141
15:17:19.275	0.389532
15:17:19.575	0.388774
15:17:19.975	0.414888
15:17:20.274	0.434236
15:17:20.575	0.432188
15:17:20.975	0.452484
15:17:21.275	0.454133
15:17:21.576	0.437450
15:17:21.975	0.392109
15:17:22.274	0.393251
15:17:22.675	0.428775
15:17:22.975	0.440555
15:17:23.275	0.447007
15:17:23.675	0.423574
15:17:23.975	0.408253
15:17:24.274	0.399193
15:17:24.675	0.418974
15:17:24.975	0.437747
15:17:25.275	0.468096
15:17:25.675	0.447379
15:17:25.975	0.430499
15:17:26.375	0.458103
15:17:26.674	0.469685
15:17:26.975	0.480264
15:17:27.375	0.504305
15:17:27.675	0.463990
15:17:28.075	0.421082
15:17:28.374	0.405646
15:17:28.675	0.419058
15:17:29.075	0.441512
15:17:29.375	0.424592
15:17:29.775	0.378381
15:17:30.075	0.390544
15:17:30.475	0.395938
15:17:30.774	0.399739
15:17:31.175	0.440083
15:17:31.474	0.472635
15:17:31.776	0.456157
15:17:32.175	0.461822
15:17:32.475	0.408902
15:17:32.775	0.425728
15:17:33.175	0.449121
15:17:33.474	0.453580
15:17:33.874	0.466512
15:17:34.175	0.465310
15:17:34.574	0.479256
15:17:34.876	0.494472
15:17:35.275	0.503044
15:17:35.574	0.487494
15:17:35.874	0.459491
15:17:36.275	0.441237
15:17:36.575	0.461357
15:17:36.974	0.439669
15:17:37.275	0.448804
15:17:37.575	0.471683
15:17:37.975	0.462730
15:17:38.275	0.452225
15:17:38.575	0.456675
15:17:38.975	0.463157
15:17:39.275	0.469702
15:17:39.675	0.512535
15:17:39.975	0.504425
15:17:40.275	0.498973
15:17:40.675	0.518501
15:17:40.975	0.511522
15:17:41.375	0.490823
15:17:41.675	0.472266
15:17:41.975	0.497911
15:17:42.375	0.489992
15:17:42.675	0.507343
15:17:43.075	0.526333
15:17:43.375	0.501336
15:17:43.775	0.453523
15:17:44.074	0.422671
15:17:44.475	0.397485
15:17:44.775	0.411945
15:17:45.175	0.445594
15:17:45.475	0.402093
15:17:45.775	0.406555
15:17:46.175	0.435100
15:17:46.475	0.456757
15:17:46.775	0.479516
15:17:47.175	0.392242
15:17:47.475	0.394725
15:17:47.775	0.431383
15:17:48.174	0.488646
15:17:48.475	0.475744
15:17:48.775	0.484352
15:17:49.175	0.453253
15:17:49.475	0.513981
15:17:49.775	0.529830
15:17:50.174	0.505265
15:17:50.475	0.462135
15:17:50.875	0.435485
15:17:51.174	0.477252
15:17:51.475	0.468643
15:17:51.875	0.463731
15:17:52.174	0.455380
15:17:52.475	0.421028
15:17:52.875	0.428657
15:17:53.175	0.436324
15:17:53.474	0.414863
15:17:53.874	0.411308
15:17:54.175	0.418691
15:17:54.475	0.445835
15:17:54.875	0.464950
15:17:55.175	0.451173
15:17:55.575	0.425355
15:17:55.875	0.404630
15:17:56.175	0.406184
15:17:56.575	0.429608
15:17:56.874	0.444156
15:17:57.275	0.452634
15:17:57.575	0.477122
15:17:57.975	0.484588
15:17:58.274	0.465096
15:17:58.575	0.486632
15:17:58.975	0.498283
15:17:59.275	0.478850
15:17:59.575	0.467834
15:17:59.975	0.454038
15:18:00.275	0.451843
15:18:00.574	0.455581
15:18:00.975	0.497050
15:18:01.275	0.493291
15:18:01.575	0.477130
15:18:01.975	0.463960
15:18:02.375	0.448832
15:18:02.675	0.430591
15:18:03.075	0.432492
15:18:03.374	0.436620
15:18:03.675	0.423177
15:18:04.075	0.413125
15:18:04.374	0.403028
15:18:04.774	0.382120
15:18:05.075	0.393352
15:18:05.475	0.362694
15:18:05.775	0.362119
15:18:06.174	0.362691
15:18:06.475	0.384509
15:18:06.775	0.390949
15:18:07.175	0.406209
15:18:07.475	0.403368
15:18:07.775	0.384225
15:18:08.174	0.417842
15:18:08.475	0.415075
15:18:08.774	0.405068
15:18:09.175	0.399892
15:18:09.475	0.384145
15:18:09.775	0.369565
15:18:10.175	0.393116
15:18:10.475	0.396326
15:18:10.775	0.399721
15:18:11.175	0.409801
15:18:11.475	0.412304
15:18:11.875	0.386727
15:18:12.175	0.371669
15:18:12.575	0.389714
15:18:12.875	0.390754
15:18:13.275	0.412924
15:18:13.575	0.400475
15:18:13.875	0.381014
15:18:14.275	0.379746
15:18:14.575	0.386610
15:18:14.875	0.433814
15:18:15.275	0.441626
15:18:15.575	0.457402
15:18:15.975	0.442530
15:18:16.275	0.428524
15:18:16.674	0.437303
15:18:16.975	0.440523
15:18:17.275	0.430564
15:18:17.675	0.417767
15:18:17.975	0.425746
15:18:18.375	0.408058
15:18:18.675	0.400404
15:18:19.075	0.396586
15:18:19.374	0.397775
15:18:19.775	0.411568
15:18:20.075	0.421049
15:18:20.475	0.429627
15:18:20.775	0.426404
15:18:21.175	0.442633
15:18:21.475	0.440107
15:18:21.775	0.430906
15:18:22.175	0.436668
15:18:22.475	0.420466
15:18:22.875	0.412145
15:18:23.175	0.425077
15:18:23.575	0.403453
15:18:23.875	0.398011
15:18:24.175	0.398905
15:18:24.575	0.439371
15:18:24.875	0.446963
15:18:25.274	0.420005
15:18:25.575	0.421759
15:18:25.975	0.436062
15:18:26.275	0.443651
15:18:26.675	0.432001
15:18:26.975	0.418361
15:18:27.374	0.438426
15:18:27.675	0.436129
15:18:27.975	0.458035
15:18:28.375	0.490052
15:18:28.675	0.485635
15:18:28.975	0.484570
15:18:29.375	0.513523
15:18:29.674	0.529194
15:18:29.975	0.495305
15:18:30.375	0.483771
15:18:30.675	0.483408
15:18:30.974	0.501386
15:18:31.375	0.480119
15:18:31.675	0.471038
15:18:31.975	0.481840
15:18:32.375	0.500976
15:18:32.675	0.494147
15:18:33.075	0.510561
15:18:33.375	0.499451
15:18:33.775	0.498648
15:18:34.075	0.486259
15:18:34.475	0.501208
15:18:34.776	0.491172
15:18:35.075	0.496806
15:18:35.475	0.536715
15:18:35.775	0.532248
15:18:36.075	0.563639
15:18:36.475	0.544285
15:18:36.775	0.553462
15:18:37.175	0.552817
15:18:37.475	0.569182
15:18:37.875	0.573569
15:18:38.175	0.572426
15:18:38.576	0.576043
15:18:38.875	0.596470
15:18:39.275	0.601614
15:18:39.575	0.615705
15:18:39.976	0.659997
15:18:40.275	0.685325
15:18:40.676	0.752364
15:18:40.975	0.809035
15:18:41.375	0.784142
15:18:41.675	0.800374
15:18:41.976	0.843228
15:18:42.375	0.882027
15:18:42.675	0.905028
15:18:42.975	0.911450
15:18:43.375	0.969533
15:18:43.675	0.982081
15:18:44.075	0.998100
15:18:44.375	1.014772
15:18:44.775	1.048358
15:18:45.075	1.050263
15:18:45.376	1.080509
15:18:45.775	1.017351
15:18:46.076	1.001113
15:18:46.475	1.004147
15:18:46.775	1.004045
15:18:47.175	0.974649
15:18:47.475	0.942649
15:18:47.875	0.832491
15:18:48.175	0.784250
15:18:48.575	0.851976
15:18:48.875	0.836501
15:18:49.275	0.862102
15:18:49.575	0.885485
15:18:49.875	0.832018
15:18:50.275	0.754684
15:18:50.575	0.743561
15:18:50.875	0.734203
15:18:51.276	0.732031
15:18:51.576	0.715449
15:18:51.875	0.710206
15:18:52.276	0.718503
15:18:52.575	0.727805
15:18:52.876	0.747789
15:18:53.275	0.739851
15:18:53.575	0.724686
15:18:53.876	0.720860
15:18:54.276	0.724265
15:18:54.576	0.723638
15:18:54.875	0.705031
15:18:55.275	0.693159
15:18:55.575	0.623973
15:18:55.875	0.617808
15:18:56.275	0.626161
15:18:56.575	0.607726
15:18:56.875	0.582783
15:18:57.275	0.565138
15:18:57.575	0.575962
15:18:57.975	0.581143
15:18:58.276	0.587926
15:18:58.675	0.598038
15:18:58.976	0.618666
15:18:59.375	0.638093
15:18:59.675	0.652247
15:18:59.975	0.650736
15:19:00.375	0.649223
15:19:00.675	0.665503
15:19:01.075	0.624807
15:19:01.375	0.623738
15:19:01.775	0.594810
15:19:02.075	0.594185
15:19:02.475	0.594493
15:19:02.775	0.599427
15:19:03.075	0.581845
15:19:03.475	0.581701
15:19:03.775	0.572650
15:19:04.175	0.579026
15:19:04.476	0.577637
15:19:04.775	0.596579
15:19:05.176	0.594239
15:19:05.475	0.634583
15:19:05.876	0.647763
15:19:06.176	0.648137
15:19:06.576	0.654577
15:19:06.875	0.676138
15:19:07.176	0.671704
15:19:07.575	0.686721
15:19:07.875	0.701318
15:19:08.276	0.708490
15:19:08.576	0.703119
15:19:08.975	0.686703
15:19:09.276	0.662009
15:19:09.675	0.631611
15:19:09.975	0.627283
15:19:10.275	0.624464
15:19:10.675	0.598980
15:19:10.975	0.601495
15:19:11.275	0.604953
15:19:11.676	0.624328
15:19:11.975	0.637756
15:19:12.375	0.650550
15:19:12.676	0.650300
15:19:12.976	0.643097
15:19:13.375	0.632526
15:19:13.675	0.634872
15:19:13.976	0.639246
15:19:14.376	0.676698
15:19:14.676	0.690375
15:19:15.075	0.675681
15:19:15.376	0.627933
15:19:15.776	0.655061
15:19:16.076	0.648437
15:19:16.476	0.619761
15:19:16.777	0.620283
15:19:17.075	0.584940
15:19:17.476	0.583266
15:19:17.775	0.561973
15:19:18.075	0.544449
15:19:18.476	0.550783
15:19:18.776	0.556060
15:19:19.176	0.557762
15:19:19.476	0.564571
15:19:19.876	0.554715
15:19:20.176	0.563112
15:19:20.576	0.560417
15:19:20.875	0.503391
15:19:21.176	0.486943
15:19:21.575	0.510993
15:19:21.875	0.511630
15:19:22.276	0.465249
15:19:22.576	0.450670
15:19:22.975	0.458726
15:19:23.275	0.439763
15:19:23.676	0.408412
15:19:23.976	0.389874
15:19:24.277	0.372606
15:19:24.676	0.391157
15:19:24.975	0.402045
15:19:25.276	0.407396
15:19:25.676	0.388976
15:19:25.975	0.377109
15:19:26.376	0.360989
15:19:26.676	0.366150
15:19:27.075	0.379295
15:19:27.376	0.373198
15:19:27.775	0.366531
15:19:28.075	0.363020
15:19:28.376	0.363309
15:19:28.775	0.367424
15:19:29.076	0.364547
15:19:29.475	0.366320
15:19:29.776	0.375405
15:19:30.175	0.371633
15:19:30.475	0.361179
15:19:30.875	0.354544
15:19:31.175	0.360692
15:19:31.477	0.372796
15:19:31.875	0.369452
15:19:32.175	0.358050
15:19:32.575	0.361101
15:19:32.875	0.371654
15:19:33.176	0.372804
15:19:33.576	0.378697
15:19:33.875	0.376746
15:19:34.276	0.374914
15:19:34.576	0.365261
15:19:34.876	0.352609
15:19:35.275	0.377002
15:19:35.576	0.379148
15:19:35.975	0.369241
15:19:36.276	0.354465
15:19:36.676	0.374992
15:19:36.976	0.385199
15:19:37.276	0.375154
15:19:37.676	0.388376
15:19:37.975	0.387867
15:19:38.276	0.355195
15:19:38.675	0.357024
15:19:38.975	0.347775
15:19:39.375	0.357196
15:19:39.676	0.380736
15:19:40.076	0.378058
15:19:40.376	0.385728
15:19:40.776	0.376468
15:19:41.076	0.338584
15:19:41.376	0.352093
15:19:41.776	0.345278
15:19:42.076	0.356530
15:19:42.476	0.369578
15:19:42.776	0.354745
15:19:43.076	0.353358
15:19:43.475	0.369604
15:19:43.776	0.378376
15:19:44.176	0.349833
15:19:44.476	0.346406
15:19:44.875	0.351266
15:19:45.176	0.345115
15:19:45.476	0.342735
15:19:45.875	0.330897
15:19:46.176	0.329996
15:19:46.475	0.321537
15:19:46.876	0.328773
15:19:47.175	0.333177
15:19:47.575	0.323779
15:19:47.875	0.325002
15:19:48.275	0.305849
15:19:48.576	0.324857
15:19:48.975	0.331651
15:19:49.275	0.333774
15:19:49.675	0.335862
15:19:49.975	0.346645
15:19:50.276	0.359934
15:19:50.675	0.369314
15:19:50.976	0.362636
15:19:51.276	0.346028
15:19:51.676	0.362015
15:19:51.976	0.371122
15:19:52.275	0.378835
15:19:52.676	0.361792
15:19:52.975	0.358910
15:19:53.377	0.352208
15:19:53.676	0.351367
15:19:54.076	0.369826
15:19:54.375	0.376342
15:19:54.776	0.349864
15:19:55.075	0.357902
15:19:55.476	0.344252
15:19:55.776	0.347035
15:19:56.176	0.355342
15:19:56.476	0.356253
15:19:56.875	0.350058
15:19:57.176	0.328714
15:19:57.576	0.347287
15:19:57.875	0.343237
15:19:58.275	0.335745
15:19:58.576	0.316178
15:19:58.975	0.324797
15:19:59.276	0.328068
15:19:59.675	0.332186
15:19:59.976	0.309298
15:20:00.276	0.305609
15:20:00.676	0.325199
15:20:00.976	0.337788
15:20:01.276	0.342196
15:20:01.676	0.321059
15:20:01.976	0.335488
15:20:02.376	0.339528
15:20:02.776	0.341529
15:20:03.076	0.329905
15:20:03.376	0.325720
15:20:03.776	0.324662
15:20:04.075	0.337256
15:20:04.376	0.371230
15:20:04.776	0.364067
15:20:05.076	0.381952
15:20:05.475	0.407509
15:20:05.776	0.406186
15:20:06.176	0.402649
15:20:06.476	0.402036
15:20:06.875	0.387716
15:20:07.176	0.389502
15:20:07.576	0.383977
15:20:07.876	0.374279
15:20:08.276	0.364717
15:20:08.576	0.373065
15:20:08.976	0.378158
15:20:09.275	0.373020
15:20:09.676	0.366120
15:20:09.976	0.366505
15:20:10.275	0.368664
15:20:10.676	0.351187
15:20:10.975	0.341862
15:20:11.276	0.339155
15:20:11.676	0.325099
15:20:11.975	0.318490
15:20:12.375	0.311841
15:20:12.676	0.314976
15:20:13.076	0.341336
15:20:13.376	0.344878
15:20:13.776	0.351759
15:20:14.075	0.344534
15:20:14.376	0.334462
15:20:14.776	0.325769
15:20:15.076	0.330307
15:20:15.376	0.342199
15:20:15.776	0.353583
15:20:16.076	0.351676
15:20:16.475	0.336129
15:20:16.776	0.341002
15:20:17.176	0.357861
15:20:17.475	0.360564
15:20:17.876	0.349313
15:20:18.175	0.356005
15:20:18.576	0.369428
15:20:18.876	0.369207
15:20:19.276	0.359506
15:20:19.576	0.361801
15:20:19.976	0.338246
15:20:20.276	0.334190
15:20:20.676	0.344071
15:20:20.976	0.329996
15:20:21.376	0.304928
15:20:21.676	0.321064
15:20:22.076	0.350475
15:20:22.376	0.361755
15:20:22.675	0.358029
15:20:23.076	0.372456
15:20:23.376	0.375164
15:20:23.776	0.389033
15:20:24.076	0.386515
15:20:24.476	0.379329
15:20:24.776	0.369664
15:20:25.176	0.352009
15:20:25.476	0.342042
15:20:25.875	0.336003
15:20:26.175	0.343491
15:20:26.576	0.329914
15:20:26.875	0.338804
15:20:27.276	0.366560
15:20:27.576	0.387364
15:20:27.976	0.391391
15:20:28.276	0.401464
15:20:28.576	0.385369
15:20:28.976	0.402533
15:20:29.275	0.387954
15:20:29.577	0.379529
15:20:29.976	0.387687
15:20:30.276	0.383196
15:20:30.676	0.367884
15:20:31.075	0.368412
15:20:31.376	0.356509
15:20:31.675	0.363504
15:20:32.075	0.372344
15:20:32.375	0.379379
15:20:32.676	0.368483
15:20:33.076	0.372693
15:20:33.375	0.362527
15:20:33.776	0.360741
15:20:34.076	0.348293
15:20:34.476	0.349460
15:20:34.776	0.336110
15:20:35.176	0.352084
15:20:35.476	0.356987
15:20:35.776	0.362542
15:20:36.176	0.345615
15:20:36.476	0.359177
15:20:36.775	0.346628
15:20:37.176	0.330772
15:20:37.476	0.324499
15:20:37.775	0.333738
15:20:38.176	0.323971
15:20:38.476	0.307098
15:20:38.776	0.312104
15:20:39.176	0.313007
15:20:39.476	0.314004
15:20:39.775	0.316837
15:20:40.176	0.332235
15:20:40.476	0.317420
15:20:40.875	0.325137
15:20:41.176	0.328722
15:20:41.576	0.325140
15:20:41.876	0.337140
15:20:42.276	0.346681
15:20:42.576	0.356489
15:20:42.976	0.374831
15:20:43.275	0.363221
15:20:43.576	0.369158
15:20:43.976	0.360735
15:20:44.276	0.353933
15:20:44.675	0.357255
15:20:44.975	0.361131
15:20:45.376	0.357803
15:20:45.677	0.361505
15:20:45.976	0.375958
15:20:46.375	0.389393
15:20:46.676	0.395593
15:20:47.076	0.434694
15:20:47.376	0.493839
15:20:47.776	0.509468
15:20:48.075	0.527253
15:20:48.476	0.594825
15:20:48.776	0.642035
15:20:49.176	0.690037
15:20:49.476	0.708086
15:20:49.775	0.790036
15:20:50.176	0.894214
15:20:50.476	0.923871
15:20:50.776	1.020050
15:20:51.176	1.107815
15:20:51.476	1.199232
15:20:51.775	1.222595
15:20:52.177	1.306382
15:20:52.476	1.328746
15:20:52.876	1.428365
15:20:53.175	1.460267
15:20:53.576	1.501713
15:20:53.876	1.561782
15:20:54.276	1.623580
15:20:54.576	1.619894
15:20:54.976	1.564880
15:20:55.277	1.556790
15:20:55.676	1.516225
15:20:55.976	1.500399
15:20:56.277	1.484246
15:20:56.676	1.415595
15:20:56.975	1.388925
15:20:57.375	1.311666
15:20:57.677	1.193775
15:20:58.077	1.066610
15:20:58.376	1.000255
15:20:58.676	0.906440
15:20:59.076	0.791035
15:20:59.376	0.714012
15:20:59.776	0.667560
15:21:00.076	0.638433
15:21:00.476	0.576696
15:21:00.776	0.507593
15:21:01.175	0.451918
15:21:01.476	0.437271
15:21:01.876	0.442476
15:21:02.176	0.417764
15:21:02.576	0.406718
15:21:02.976	0.387809
15:21:03.276	0.383830
15:21:03.576	0.370296
15:21:03.976	0.386374
15:21:04.276	0.391648
15:21:04.576	0.393264
15:21:04.976	0.397226
15:21:05.276	0.390436
15:21:05.676	0.417826
15:21:05.976	0.415668
15:21:06.376	0.384274
15:21:06.676	0.384995
15:21:07.075	0.399997
15:21:07.376	0.390783
15:21:07.676	0.395649
15:21:08.077	0.386982
15:21:08.376	0.383659
15:21:08.776	0.362331
15:21:09.076	0.386958
15:21:09.476	0.399271
15:21:09.776	0.393265
15:21:10.176	0.371810
15:21:10.476	0.377971
15:21:10.876	0.384858
15:21:11.176	0.400615
15:21:11.576	0.390883
15:21:11.876	0.396333
15:21:12.276	0.402256
15:21:12.575	0.396683
15:21:12.976	0.419664
15:21:13.277	0.407482
15:21:13.676	0.389005
15:21:13.976	0.374119
15:21:14.376	0.360192
15:21:14.676	0.348931
15:21:14.976	0.350910
15:21:15.375	0.349349
15:21:15.676	0.367726
15:21:16.075	0.382031
15:21:16.376	0.424789
15:21:16.776	0.408242
15:21:17.076	0.412684
15:21:17.476	0.393576
15:21:17.776	0.391148
15:21:18.175	0.381793
15:21:18.475	0.376986
15:21:18.776	0.378159
15:21:19.175	0.348879
15:21:19.476	0.359124
15:21:19.776	0.327513
15:21:20.176	0.336668
15:21:20.476	0.345513
15:21:20.875	0.345893
15:21:21.176	0.336108
15:21:21.577	0.322124
15:21:21.876	0.322512
15:21:22.275	0.317318
15:21:22.576	0.338820
15:21:22.976	0.337229
15:21:23.376	0.338958
15:21:23.676	0.352953
15:21:24.076	0.346810
15:21:24.376	0.332820
15:21:24.776	0.327290
15:21:25.076	0.333137
15:21:25.476	0.353890
15:21:25.776	0.349000
15:21:26.075	0.345868
15:21:26.475	0.367387
15:21:26.776	0.381025
15:21:27.176	0.358054
15:21:27.476	0.364215
15:21:27.876	0.363314
15:21:28.176	0.359765
15:21:28.576	0.366010
15:21:28.876	0.375247
15:21:29.276	0.365693
15:21:29.576	0.353828
15:21:29.976	0.350736
15:21:30.376	0.361164
15:21:30.676	0.378179
15:21:31.076	0.388692
15:21:31.375	0.357141
15:21:31.776	0.353842
15:21:32.076	0.357176
15:21:32.476	0.342837
15:21:32.776	0.343966
15:21:33.076	0.361293
15:21:33.476	0.363177
15:21:33.775	0.365831
15:21:34.076	0.363327
15:21:34.476	0.366753
15:21:34.777	0.357809
15:21:35.176	0.384886
15:21:35.476	0.384396
15:21:35.876	0.369758
15:21:36.176	0.374032
15:21:36.576	0.396025
15:21:36.876	0.401649
15:21:37.276	0.380252
15:21:37.576	0.379793
15:21:37.976	0.399506
15:21:38.276	0.402477
15:21:38.676	0.400524
15:21:38.976	0.410290
15:21:39.376	0.428750
15:21:39.676	0.392571
15:21:39.975	0.385878
15:21:40.377	0.391554
15:21:40.676	0.380597
15:21:40.976	0.377969
15:21:41.376	0.381004
15:21:41.676	0.410057
15:21:42.076	0.420743
15:21:42.376	0.418373
15:21:42.776	0.385312
15:21:43.076	0.378432
15:21:43.376	0.370905
15:21:43.776	0.376836
15:21:44.076	0.388577
15:21:44.476	0.383537
15:21:44.776	0.375314
15:21:45.176	0.362717
15:21:45.476	0.361652
15:21:45.876	0.340350
15:21:46.176	0.322375
15:21:46.576	0.322338
15:21:46.876	0.318960
15:21:47.176	0.333380
15:21:47.576	0.331215
15:21:47.876	0.323385
15:21:48.176	0.341254
15:21:48.577	0.327762
15:21:48.876	0.337005
15:21:49.276	0.354138
15:21:49.576	0.356650
15:21:49.876	0.347937
15:21:50.276	0.326498
15:21:50.576	0.332205
15:21:50.876	0.333676
15:21:51.276	0.343878
15:21:51.576	0.357524
15:21:51.976	0.340155
15:21:52.276	0.341599
15:21:52.677	0.358585
15:21:52.976	0.362725
15:21:53.377	0.363404
15:21:53.677	0.364461
15:21:53.976	0.369121
15:21:54.376	0.371723
15:21:54.676	0.372596
15:21:54.977	0.378995
15:21:55.376	0.337698
15:21:55.676	0.343972
15:21:56.076	0.322677
15:21:56.376	0.329411
15:21:56.776	0.362066
15:21:57.076	0.382789
15:21:57.477	0.373583
15:21:57.777	0.367707
15:21:58.176	0.351042
15:21:58.476	0.379024
15:21:58.876	0.364047
15:21:59.177	0.367038
15:21:59.576	0.371837
15:21:59.876	0.376857
15:22:00.277	0.364318
15:22:00.576	0.350868
15:22:00.976	0.332618
15:22:01.277	0.361219
15:22:01.676	0.350812
15:22:01.976	0.338527
15:22:02.376	0.337876
15:22:02.677	0.346284
15:22:03.077	0.343034
15:22:03.376	0.329411
15:22:03.777	0.336532
15:22:04.076	0.347756
15:22:04.476	0.340447
15:22:04.777	0.317694
15:22:05.077	0.300509
15:22:05.476	0.254904
15:22:05.776	0.270377
15:22:06.176	0.294710
15:22:06.476	0.273171
15:22:06.877	0.249750
15:22:07.176	0.263736
15:22:07.576	0.252373
15:22:07.876	0.259377
15:22:08.177	0.296564
15:22:08.576	0.294595
15:22:08.877	0.301662
15:22:09.277	0.317177
15:22:09.577	0.316406
15:22:09.976	0.331828
15:22:10.277	0.360361
15:22:10.677	0.350542
15:22:10.976	0.366967
15:22:11.377	0.342523
15:22:11.676	0.336393
15:22:11.976	0.351300
15:22:12.376	0.367068
15:22:12.676	0.386835
15:22:13.076	0.383126
15:22:13.377	0.391666
15:22:13.777	0.398882
15:22:14.076	0.402788
15:22:14.476	0.415374
15:22:14.776	0.436938
15:22:15.076	0.447376
15:22:15.477	0.440186
15:22:15.776	0.438698
15:22:16.076	0.474347
15:22:16.476	0.499408
15:22:16.777	0.501893
15:22:17.177	0.526438
15:22:17.477	0.632002
15:22:17.876	0.704471
15:22:18.177	0.839294
15:22:18.577	0.919520
15:22:18.876	0.981692
15:22:19.177	1.131878
15:22:19.576	1.255576
15:22:19.876	1.297642
15:22:20.276	1.371347
15:22:20.576	1.483609
15:22:20.977	1.567339
15:22:21.276	1.624032
15:22:21.676	1.740134
15:22:21.977	1.788484
15:22:22.376	1.851912
15:22:22.677	1.884113
15:22:23.076	1.900937
15:22:23.376	1.894874
15:22:23.776	1.957433
15:22:24.076	1.951531
15:22:24.477	1.974598
15:22:24.777	1.964229
15:22:25.077	1.962376
15:22:25.477	1.976754
15:22:25.776	1.952762
15:22:26.076	1.933468
15:22:26.476	1.935499
15:22:26.778	1.900916
15:22:27.176	1.856933
15:22:27.477	1.787793
15:22:27.877	1.745403
15:22:28.176	1.754429
15:22:28.577	1.654704
15:22:28.876	1.632470
15:22:29.177	1.600743
15:22:29.577	1.603455
15:22:29.877	1.579513
15:22:30.176	1.565771
15:22:30.577	1.522445
15:22:30.877	1.490865
15:22:31.276	1.453992
15:22:31.577	1.423056
15:22:31.977	1.417183
15:22:32.277	1.352868
15:22:32.678	1.357291
15:22:32.977	1.364346
15:22:33.277	1.377300
15:22:33.676	1.381279
15:22:33.977	1.401625
15:22:34.376	1.404800
15:22:34.677	1.380204
15:22:35.077	1.365514
15:22:35.377	1.401174
15:22:35.776	1.397889
15:22:36.077	1.408292
15:22:36.477	1.431348
15:22:36.776	1.447703
15:22:37.177	1.448227
15:22:37.477	1.453999
15:22:37.877	1.438508
15:22:38.177	1.381199
15:22:38.576	1.374649
15:22:38.877	1.360418
15:22:39.276	1.398106
15:22:39.577	1.431055
15:22:39.977	1.431957
15:22:40.276	1.440579
15:22:40.577	1.459355
15:22:40.976	1.551039
15:22:41.276	1.525187
15:22:41.677	1.587539
15:22:41.977	1.566120
15:22:42.376	1.514071
15:22:42.677	1.501928
15:22:43.077	1.451340
15:22:43.377	1.468846
15:22:43.776	1.436794
15:22:44.076	1.436005
15:22:44.378	1.429319
15:22:44.776	1.447329
15:22:45.077	1.437501
15:22:45.477	1.447067
15:22:45.777	1.441327
15:22:46.176	1.424758
15:22:46.476	1.410950
15:22:46.876	1.382677
15:22:47.177	1.377327
15:22:47.476	1.388523
15:22:47.876	1.434273
15:22:48.177	1.439833
15:22:48.576	1.420065
15:22:48.977	1.505620
15:22:49.277	1.450747
15:22:49.676	1.459080
15:22:49.976	1.445332
15:22:50.377	1.381164
15:22:50.676	1.380018
15:22:51.077	1.404520
15:22:51.377	1.408117
15:22:51.777	1.399889
15:22:52.077	1.407314
15:22:52.378	1.385024
15:22:52.777	1.401045
15:22:53.077	1.464802
15:22:53.476	1.482569
15:22:53.777	1.491880
15:22:54.177	1.453635
15:22:54.476	1.470172
15:22:54.877	1.458739
15:22:55.177	1.545757
15:22:55.478	1.582008
15:22:55.876	1.585159
15:22:56.177	1.625074
15:22:56.576	1.704755
15:22:56.877	1.740731
15:22:57.277	1.765133
15:22:57.577	1.874574
15:22:57.977	1.928541
15:22:58.277	2.035263
15:22:58.576	2.063122
15:22:58.977	2.095759
15:22:59.276	2.485504
15:23:00.576	2.651305
15:23:00.877	2.737112
15:23:01.276	2.889868
15:23:01.577	3.077242
15:23:01.978	3.199360
15:23:02.277	3.300685
15:23:02.577	3.400569
15:23:02.976	3.562902
15:23:03.376	3.678712
15:23:03.677	3.760879
15:23:04.076	3.753065
15:23:04.377	3.780718
15:23:04.677	3.823131
15:23:05.077	3.806326
15:23:05.377	3.768812
15:23:05.677	3.585413
15:23:06.077	3.454092
15:23:06.377	3.380416
15:23:06.677	3.243866
15:23:07.077	3.154719
15:23:07.376	3.089361
15:23:07.677	2.938903
15:23:08.077	2.739761
15:23:08.376	2.671025
15:23:08.777	2.558283
15:23:09.076	2.432347
15:23:09.377	2.362833
15:23:09.777	2.255293
15:23:10.077	2.199954
15:23:10.377	2.088135
15:23:10.777	1.783674
15:23:12.078	1.692877
15:23:12.376	1.674596
15:23:12.778	1.592655
15:23:13.077	1.486689
15:23:13.477	1.485745
15:23:13.776	1.448770
15:23:14.078	1.429127
15:23:14.476	1.344641
15:23:14.777	1.340471
15:23:15.077	1.321453
15:23:15.477	1.279933
15:23:15.777	1.213175
15:23:16.176	1.206124
15:23:16.477	1.179575
15:23:16.877	1.146757
15:23:17.177	1.117329
15:23:17.477	1.101701
15:23:17.877	1.043319
15:23:18.176	0.992957
15:23:18.477	0.972130
15:23:18.877	0.941830
15:23:19.177	0.922019
15:23:19.577	0.892875
15:23:19.877	0.863582
15:23:20.278	0.843969
15:23:20.576	0.824555
15:23:20.977	0.789543
15:23:21.277	0.771758
15:23:21.677	0.777592
15:23:21.978	0.778753
15:23:22.377	0.749968
15:23:22.676	0.733132
15:23:23.077	0.776944
15:23:23.377	0.762052
15:23:23.677	0.719809
15:23:24.077	0.684495
15:23:24.377	0.673517
15:23:24.777	0.663879
15:23:25.077	0.648118
15:23:25.478	0.645645
15:23:25.777	0.644459
15:23:26.177	0.633391
15:23:26.477	0.633797
15:23:26.877	0.652246
15:23:27.177	0.640287
15:23:27.577	0.649547
15:23:27.876	0.605798
15:23:28.277	0.617266
15:23:28.576	0.576243
15:23:28.977	0.538403
15:23:29.277	0.534910
15:23:29.677	0.519485
15:23:29.976	0.544498
15:23:30.377	0.559081
15:23:30.676	0.555255
15:23:31.078	0.509830
15:23:31.377	0.515576
15:23:31.676	0.508000
15:23:32.077	0.499856
15:23:32.378	0.498242
15:23:32.776	0.516774
15:23:33.077	0.518799
15:23:33.477	0.525038
15:23:33.777	0.528870
15:23:34.177	0.509578
15:23:34.477	0.511748
15:23:34.877	0.501057
15:23:35.177	0.478427
15:23:35.577	0.472813
15:23:35.877	0.468687
15:23:36.277	0.455286
15:23:36.578	0.471319
15:23:36.877	0.460010
15:23:37.277	0.459643
15:23:37.577	0.468870
15:23:37.977	0.477238
15:23:38.277	0.484882
15:23:38.577	0.479768
15:23:38.977	0.500835
15:23:39.277	0.488439
15:23:39.677	0.491780
15:23:39.976	0.484919
15:23:40.377	0.495502
15:23:40.677	0.476715
15:23:41.076	0.487540
15:23:41.377	0.495030
15:23:41.777	0.507370
15:23:42.077	0.498915
15:23:42.477	0.528813
15:23:42.777	0.535166
15:23:43.177	0.506984
15:23:43.477	0.515758
15:23:43.876	0.516333
15:23:44.177	0.510634
15:23:44.577	0.538857
15:23:44.877	0.529523
15:23:45.277	0.525104
15:23:45.576	0.510994
15:23:45.877	0.504471
15:23:46.277	0.526949
15:23:46.577	0.532541
15:23:46.877	0.524580
15:23:47.277	0.523215
15:23:47.577	0.518077
15:23:47.977	0.543130
15:23:48.277	0.543305
15:23:48.677	0.525389
15:23:48.978	0.529116
15:23:49.377	0.517582
15:23:49.677	0.514343
15:23:50.077	0.519720
15:23:50.377	0.517442
15:23:50.777	0.492767
15:23:51.076	0.484961
15:23:51.477	0.485097
15:23:51.776	0.513971
15:23:52.177	0.518843
15:23:52.477	0.510954
15:23:52.777	0.495393
15:23:53.177	0.515827
15:23:53.477	0.516303
15:23:53.777	0.510079
15:23:54.177	0.513197
15:23:54.477	0.532336
15:23:54.877	0.500164
15:23:55.177	0.494694
15:23:55.576	0.539490
15:23:55.877	0.568158
15:23:56.277	0.546580
15:23:56.576	0.560408
15:23:56.876	0.551430
15:23:57.277	0.525110
15:23:57.576	0.523622
15:23:57.877	0.522870
15:23:58.277	0.507023
15:23:58.577	0.501832
15:23:58.977	0.475852
15:23:59.277	0.473243
15:23:59.577	0.487035
15:23:59.977	0.510010
15:24:00.277	0.528798
15:24:00.677	0.505423
15:24:00.976	0.489151
15:24:01.377	0.476532
15:24:01.676	0.467316
15:24:02.077	0.468641
15:24:02.376	0.440201
15:24:02.777	0.445335
15:24:03.077	0.451452
15:24:03.477	0.457917
15:24:03.877	0.470561
15:24:04.177	0.484949
15:24:04.477	0.490167
15:24:04.877	0.492951
15:24:05.176	0.465392
15:24:05.577	0.466639
15:24:05.877	0.463566
15:24:06.277	0.462793
15:24:06.577	0.461908
15:24:06.977	0.441349
15:24:07.277	0.452356
15:24:07.677	0.455027
15:24:07.977	0.453934
15:24:08.377	0.449574
15:24:08.677	0.464477
15:24:09.077	0.455607
15:24:09.377	0.441751
15:24:09.777	0.436244
15:24:10.076	0.459289
15:24:10.477	0.492355
15:24:10.777	0.478203
15:24:11.076	0.486871
15:24:11.477	0.500321
15:24:11.777	0.510910
15:24:12.077	0.520554
15:24:12.477	0.525415
15:24:12.777	0.527221
15:24:13.177	0.527649
15:24:13.477	0.507220
15:24:13.777	0.512464
15:24:14.177	0.568539
15:24:14.477	0.651093
15:24:14.777	0.634110
15:24:15.177	0.582393
15:24:15.476	0.596530
15:24:15.877	0.593294
15:24:16.177	0.603670
15:24:16.577	0.601051
15:24:16.877	0.620412
15:24:17.277	0.592998
15:24:17.576	0.577320
15:24:17.977	0.586203
15:24:18.277	0.600329
15:24:18.677	0.590247
15:24:18.977	0.564997
15:24:19.377	0.565304
15:24:19.677	0.599799
15:24:20.077	0.619654
15:24:20.377	0.593100
15:24:20.777	0.571818
15:24:21.077	0.582324
15:24:21.477	0.563801
15:24:21.777	0.524676
15:24:22.077	0.537775
15:24:22.477	0.560839
15:24:22.777	0.553612
15:24:23.177	0.541307
15:24:23.477	0.516658
15:24:23.877	0.491735
15:24:24.177	0.497426
15:24:24.577	0.479583
15:24:24.878	0.474721
15:24:25.177	0.474422
15:24:25.577	0.457714
15:24:25.877	0.449544
15:24:26.177	0.447863
15:24:26.577	0.460743
15:24:26.877	0.458738
15:24:27.277	0.453162
15:24:27.577	0.456231
15:24:27.978	0.458578
15:24:28.277	0.479209
15:24:28.677	0.507199
15:24:28.977	0.495719
15:24:29.377	0.519222
15:24:29.677	0.517739
15:24:29.977	0.506307
15:24:30.377	0.547583
15:24:30.677	0.549889
15:24:31.077	0.573433
15:24:31.376	0.597618
15:24:31.777	0.628663
15:24:32.077	0.661416
15:24:32.477	0.672218
15:24:32.777	0.694888
15:24:33.077	0.691443
15:24:33.477	0.693307
15:24:33.777	0.684547
15:24:34.177	0.670590
15:24:34.477	0.668308
15:24:34.877	0.693981
15:24:35.177	0.681542
15:24:35.578	0.725993
15:24:35.877	0.719711
15:24:36.277	0.716454
15:24:36.576	0.708736
15:24:36.877	0.723308
15:24:37.277	0.703886
15:24:37.577	0.706985
15:24:37.977	0.740817
15:24:38.277	0.746550
15:24:38.577	0.769671
15:24:38.977	0.765126
15:24:39.277	0.778095
15:24:39.677	0.792968
15:24:39.977	0.783170
15:24:40.277	0.775199
15:24:40.677	0.793402
15:24:40.977	0.820395
15:24:41.377	0.797950
15:24:41.677	0.801370
15:24:41.978	0.795727
15:24:42.377	0.778765
15:24:42.677	0.749846
15:24:42.977	0.737237
15:24:43.377	0.763592
15:24:43.677	0.764257
15:24:43.977	0.764048
15:24:44.377	0.774358
15:24:44.677	0.761178
15:24:44.977	0.747074
15:24:45.377	0.746627
15:24:45.677	0.744621
15:24:45.977	0.735438
15:24:46.377	0.723275
15:24:46.677	0.754879
15:24:46.977	0.743951
15:24:47.377	0.749118
15:24:47.677	0.721715
15:24:47.978	0.708944
15:24:48.377	0.702615
15:24:48.677	0.705215
15:24:48.977	0.686710
15:24:49.377	0.641814
15:24:49.677	0.621435
15:24:49.977	0.624603
15:24:50.377	0.607213
15:24:50.677	0.593169
15:24:50.978	0.576892
15:24:51.377	0.541328
15:24:51.677	0.537240
15:24:52.077	0.531699
15:24:52.478	0.541046
15:24:52.777	0.545304
15:24:53.077	0.540037
15:24:53.477	0.544560
15:24:53.778	0.532330
15:24:54.077	0.526451
15:24:54.477	0.526510
15:24:54.777	0.519979
15:24:55.177	0.510318
15:24:55.478	0.511453
15:24:55.877	0.501657
15:24:56.177	0.514243
15:24:56.578	0.487701
15:24:56.877	0.498187
15:24:57.178	0.496331
15:24:57.577	0.483438
15:24:57.877	0.458677
15:24:58.277	0.435349
15:24:58.577	0.450254
15:24:58.978	0.434348
15:24:59.278	0.431288
15:24:59.677	0.458238
15:24:59.978	0.468685
15:25:00.377	0.457198
15:25:00.677	0.458155
15:25:01.077	0.469467
15:25:01.377	0.464310
15:25:01.777	0.448381
15:25:02.077	0.428120
15:25:02.477	0.454950
15:25:02.777	0.449282
15:25:03.177	0.412460
15:25:03.477	0.406516
15:25:03.877	0.411066
15:25:04.177	0.397837
15:25:04.477	0.381458
15:25:04.877	0.364624
15:25:05.177	0.376758
15:25:05.578	0.387735
15:25:05.877	0.402376
15:25:06.277	0.390530
15:25:06.577	0.390065
15:25:06.977	0.367423
15:25:07.277	0.383413
15:25:07.678	0.361680
15:25:07.977	0.300295
15:25:08.278	0.301554
15:25:08.678	0.313566
15:25:08.977	0.349534
15:25:09.377	0.334988
15:25:09.678	0.326813
15:25:10.078	0.322910
15:25:10.377	0.309325
15:25:10.777	0.294297
15:25:11.077	0.308725
15:25:11.477	0.323591
15:25:11.777	0.324887
15:25:12.078	0.335546
15:25:12.477	0.343292
15:25:12.778	0.322735
15:25:13.177	0.320557
15:25:13.477	0.332963
15:25:13.877	0.335600
15:25:14.177	0.341258
15:25:14.577	0.349126
15:25:14.878	0.360504
15:25:15.178	0.374704
15:25:15.577	0.396825
15:25:15.877	0.396152
15:25:16.178	0.392823
15:25:16.577	0.383458
15:25:16.878	0.375461
15:25:17.279	0.384788
15:25:17.577	0.388489
15:25:17.978	0.375493
15:25:18.277	0.363264
15:25:18.677	0.344742
15:25:18.977	0.341020
15:25:19.277	0.335379
15:25:19.677	0.323828
15:25:19.977	0.321737
15:25:20.377	0.312328
15:25:20.677	0.314109
15:25:21.078	0.313237
15:25:21.378	0.313523
15:25:21.778	0.301038
15:25:22.077	0.291219
15:25:22.378	0.279647
15:25:22.777	0.270851
15:25:23.077	0.266976
15:25:23.377	0.251457
15:25:23.778	0.240047
15:25:24.078	0.244249
15:25:24.478	0.255542
15:25:24.777	0.273912
15:25:25.078	0.277861
15:25:25.478	0.278636
15:25:25.777	0.275967
15:25:26.177	0.272011
15:25:26.477	0.280182
15:25:26.878	0.280320
15:25:27.177	0.271079
15:25:27.578	0.298605
15:25:27.878	0.283341
15:25:28.277	0.299548
15:25:28.578	0.308975
15:25:28.978	0.330803
15:25:29.277	0.306633
15:25:29.678	0.316587
15:25:29.977	0.320945
15:25:30.278	0.311200
15:25:30.678	0.295873
15:25:30.978	0.297533
15:25:31.377	0.319516
15:25:31.777	0.312764
15:25:32.077	0.303255
15:25:32.378	0.294555
15:25:32.778	0.288933
15:25:33.077	0.263954
15:25:33.478	0.267630
15:25:33.777	0.266974
15:25:34.177	0.267705
15:25:34.478	0.263780
15:25:34.878	0.259566
15:25:35.178	0.262649
15:25:35.578	0.263353
15:25:35.877	0.262090
15:25:36.278	0.255501
15:25:36.578	0.253074
15:25:36.977	0.252176
15:25:37.277	0.248571
15:25:37.677	0.274960