Chart Recorder Data File Fri, Sep 20, 2024 3:05 PM
Time (s)	CH1 (V)  
14:56:22.667	0.764988
14:56:23.468	0.764420
14:56:23.768	0.750920
14:56:24.168	0.782986
14:56:24.467	0.755960
14:56:24.768	0.762790
14:56:25.168	0.752897
14:56:25.467	0.757175
14:56:25.868	0.727173
14:56:26.168	0.707988
14:56:26.468	0.723577
14:56:26.868	0.732692
14:56:27.168	0.785991
14:56:27.467	0.769178
14:56:27.868	0.745741
14:56:28.167	0.734832
14:56:28.468	0.736020
14:56:28.868	0.770920
14:56:29.168	0.767448
14:56:29.568	0.778077
14:56:29.868	0.766836
14:56:30.167	0.760650
14:56:30.568	0.766304
14:56:30.867	0.770027
14:56:31.168	0.774616
14:56:31.568	0.751469
14:56:31.869	0.744030
14:56:32.167	0.762147
14:56:32.568	0.763586
14:56:32.868	0.769152
14:56:33.268	0.759931
14:56:33.568	0.767591
14:56:33.968	0.738050
14:56:34.268	0.730920
14:56:34.568	0.752110
14:56:34.968	0.748128
14:56:35.268	0.738534
14:56:35.568	0.763300
14:56:35.969	0.775404
14:56:36.268	0.778254
14:56:36.668	0.806698
14:56:36.969	0.809712
14:56:37.268	0.791359
14:56:37.667	0.809909
14:56:37.968	0.827543
14:56:38.268	0.808184
14:56:38.668	0.816426
14:56:38.968	0.786825
14:56:39.268	0.796723
14:56:39.668	0.791550
14:56:39.968	0.792685
14:56:40.368	0.752615
14:56:40.668	0.737064
14:56:40.968	0.743804
14:56:41.368	0.741095
14:56:41.668	0.766597
14:56:41.968	0.782279
14:56:42.368	0.786435
14:56:42.667	0.777999
14:56:43.068	0.771522
14:56:43.368	0.798262
14:56:43.768	0.810950
14:56:44.068	0.804302
14:56:44.368	0.816536
14:56:44.768	0.803301
14:56:45.068	0.802418
14:56:45.368	0.823732
14:56:45.767	0.842059
14:56:46.067	0.823695
14:56:46.368	0.791370
14:56:46.768	0.805067
14:56:47.068	0.801954
14:56:47.368	0.794087
14:56:47.768	0.793705
14:56:48.068	0.800142
14:56:48.368	0.822681
14:56:48.768	0.809541
14:56:49.068	0.793005
14:56:49.368	0.792255
14:56:49.768	0.805660
14:56:50.067	0.815549
14:56:50.468	0.807696
14:56:50.769	0.807884
14:56:51.168	0.787918
14:56:51.468	0.793596
14:56:51.868	0.780874
14:56:52.168	0.772867
14:56:52.468	0.764544
14:56:52.869	0.746848
14:56:53.168	0.762479
14:56:53.468	0.803647
14:56:53.868	0.807958
14:56:54.168	0.813073
14:56:54.568	0.828876
14:56:54.868	0.844271
14:56:55.268	0.841134
14:56:55.568	0.813463
14:56:55.968	0.799606
14:56:56.268	0.773524
14:56:56.568	0.784750
14:56:56.968	0.792992
14:56:57.268	0.814228
14:56:57.668	0.806676
14:56:57.968	0.801333
14:56:58.268	0.822288
14:56:58.669	0.804812
14:56:58.968	0.795681
14:56:59.369	0.799480
14:56:59.668	0.790189
14:57:00.068	0.777398
14:57:00.368	0.787086
14:57:00.768	0.768096
14:57:01.068	0.772292
14:57:01.368	0.768477
14:57:01.768	0.801857
14:57:02.068	0.809445
14:57:02.369	0.840504
14:57:02.769	0.857147
14:57:03.068	0.847087
14:57:03.368	0.826154
14:57:03.768	0.830059
14:57:04.068	0.832839
14:57:04.468	0.834626
14:57:04.768	0.815928
14:57:05.168	0.837233
14:57:05.468	0.842636
14:57:05.768	0.822673
14:57:06.168	0.800942
14:57:06.468	0.799082
14:57:06.769	0.811181
14:57:07.168	0.804127
14:57:07.468	0.794810
14:57:07.768	0.797138
14:57:08.168	0.842094
14:57:08.468	0.819889
14:57:08.768	0.809869
14:57:09.168	0.812877
14:57:09.468	0.825753
14:57:09.768	0.813666
14:57:10.168	0.792619
14:57:10.468	0.781149
14:57:10.769	0.778393
14:57:11.168	0.815339
14:57:11.468	0.822600
14:57:11.769	0.830135
14:57:12.168	0.831528
14:57:12.468	0.830266
14:57:12.768	0.833092
14:57:13.168	0.855852
14:57:13.468	0.838764
14:57:13.768	0.830500
14:57:14.168	0.841244
14:57:14.469	0.845189
14:57:14.768	0.852884
14:57:15.168	0.854982
14:57:15.468	0.838203
14:57:15.768	0.835010
14:57:16.168	0.825381
14:57:16.468	0.819046
14:57:16.769	0.795024
14:57:17.168	0.802255
14:57:17.468	0.816049
14:57:17.868	0.833527
14:57:18.168	0.842264
14:57:18.568	0.800842
14:57:18.869	0.791425
14:57:19.169	0.831832
14:57:19.568	0.842949
14:57:19.868	0.837699
14:57:20.269	0.828218
14:57:20.568	0.833524
14:57:20.968	0.837324
14:57:21.268	0.854401
14:57:21.668	0.849599
14:57:21.969	0.844295
14:57:22.369	0.823918
14:57:22.669	0.862273
14:57:22.968	0.867111
14:57:23.368	0.852150
14:57:23.668	0.868478
14:57:23.968	0.860899
14:57:24.368	0.851859
14:57:24.668	0.847843
14:57:25.069	0.843330
14:57:25.368	0.847121
14:57:25.768	0.846062
14:57:26.068	0.863083
14:57:26.368	0.866126
14:57:26.768	0.867704
14:57:27.068	0.868729
14:57:27.468	0.881374
14:57:27.768	0.880045
14:57:28.069	0.853063
14:57:28.469	0.843578
14:57:28.768	0.826829
14:57:29.168	0.821573
14:57:29.468	0.813196
14:57:29.768	0.822118
14:57:30.168	0.826442
14:57:30.468	0.837030
14:57:30.768	0.815045
14:57:31.169	0.819561
14:57:31.468	0.836227
14:57:31.869	0.861428
14:57:32.168	0.857100
14:57:32.568	0.862765
14:57:32.868	0.865711
14:57:33.270	0.828392
14:57:33.569	0.814232
14:57:33.868	0.803552
14:57:34.269	0.810938
14:57:34.569	0.816480
14:57:34.868	0.822976
14:57:35.269	0.830043
14:57:35.569	0.846396
14:57:35.968	0.841605
14:57:36.268	0.823328
14:57:36.569	0.816015
14:57:36.968	0.819723
14:57:37.268	0.808946
14:57:37.568	0.809312
14:57:37.969	0.835297
14:57:38.268	0.820006
14:57:38.569	0.815649
14:57:38.969	0.836153
14:57:39.268	0.841321
14:57:39.669	0.810032
14:57:39.970	0.792058
14:57:40.368	0.820756
14:57:40.670	0.809483
14:57:40.969	0.805598
14:57:41.368	0.806925
14:57:41.668	0.813655
14:57:41.968	0.812927
14:57:42.368	0.811347
14:57:42.668	0.816104
14:57:42.969	0.830128
14:57:43.368	0.840964
14:57:43.669	0.830932
14:57:43.968	0.833954
14:57:44.368	0.843159
14:57:44.669	0.855125
14:57:44.968	0.855662
14:57:45.369	0.850738
14:57:45.669	0.838707
14:57:46.069	0.820188
14:57:46.368	0.805567
14:57:46.768	0.829590
14:57:47.070	0.831142
14:57:47.469	0.822182
14:57:47.769	0.837030
14:57:48.068	0.841839
14:57:48.468	0.866112
14:57:48.769	0.886993
14:57:49.069	0.874684
14:57:49.469	0.838728
14:57:49.769	0.833330
14:57:50.169	0.807505
14:57:50.468	0.797571
14:57:50.768	0.789107
14:57:51.168	0.803980
14:57:51.470	0.818691
14:57:51.769	0.829391
14:57:52.168	0.827608
14:57:52.468	0.833924
14:57:52.868	0.820651
14:57:53.268	0.810947
14:57:53.568	0.807691
14:57:53.968	0.797389
14:57:54.268	0.803311
14:57:54.569	0.793176
14:57:54.969	0.786506
14:57:55.268	0.789484
14:57:55.568	0.801132
14:57:55.969	0.793369
14:57:56.268	0.787848
14:57:56.668	0.750877
14:57:56.969	0.731961
14:57:57.369	0.768240
14:57:57.668	0.793141
14:57:58.068	0.808472
14:57:58.369	0.816117
14:57:58.669	0.812790
14:57:59.068	0.818013
14:57:59.369	0.826288
14:57:59.768	0.854066
14:58:00.070	0.849106
14:58:00.468	0.830892
14:58:00.768	0.823611
14:58:01.168	0.810741
14:58:01.470	0.812394
14:58:01.768	0.823499
14:58:02.168	0.807177
14:58:02.469	0.797129
14:58:02.769	0.775554
14:58:03.168	0.780548
14:58:03.469	0.770916
14:58:03.768	0.775413
14:58:04.169	0.801937
14:58:04.468	0.807083
14:58:04.769	0.797186
14:58:05.168	0.813408
14:58:05.468	0.811543
14:58:05.769	0.808659
14:58:06.169	0.797312
14:58:06.468	0.792700
14:58:06.769	0.808231
14:58:07.168	0.802802
14:58:07.468	0.800095
14:58:07.868	0.784913
14:58:08.168	0.766740
14:58:08.568	0.774767
14:58:08.868	0.774867
14:58:09.269	0.788594
14:58:09.569	0.815090
14:58:09.869	0.823794
14:58:10.269	0.847008
14:58:10.569	0.848571
14:58:10.869	0.840682
14:58:11.269	0.834669
14:58:11.569	0.824065
14:58:11.869	0.798862
14:58:12.269	0.803423
14:58:12.568	0.800506
14:58:12.868	0.822019
14:58:13.269	0.833291
14:58:13.569	0.833316
14:58:13.969	0.835016
14:58:14.269	0.829816
14:58:14.668	0.819747
14:58:14.968	0.823845
14:58:15.368	0.845640
14:58:15.669	0.858372
14:58:15.968	0.859838
14:58:16.368	0.850766
14:58:16.669	0.842563
14:58:16.968	0.872775
14:58:17.368	0.864252
14:58:17.669	0.866377
14:58:17.969	0.884413
14:58:18.369	0.899243
14:58:18.668	0.899484
14:58:18.969	0.906157
14:58:19.368	0.877255
14:58:19.669	0.863372
14:58:19.969	0.865823
14:58:20.369	0.877620
14:58:20.669	0.867414
14:58:21.068	0.865729
14:58:21.369	0.861558
14:58:21.769	0.858744
14:58:22.069	0.862010
14:58:22.469	0.854401
14:58:22.768	0.873210
14:58:23.069	0.881799
14:58:23.468	0.881971
14:58:23.768	0.919716
14:58:24.068	0.918731
14:58:24.468	0.936551
14:58:24.770	0.953339
14:58:25.168	0.981280
14:58:25.469	1.003586
14:58:25.769	1.014004
14:58:26.168	1.025786
14:58:26.468	1.010585
14:58:26.769	1.027156
14:58:27.169	1.043557
14:58:27.469	1.056440
14:58:27.869	1.075813
14:58:28.168	1.081718
14:58:28.568	1.140323
14:58:28.870	1.178794
14:58:29.169	1.194829
14:58:29.569	1.285219
14:58:29.869	1.323767
14:58:30.168	1.336914
14:58:30.569	1.395124
14:58:30.869	1.423713
14:58:31.169	1.451719
14:58:31.569	1.470806
14:58:31.868	1.506056
14:58:32.268	1.499393
14:58:32.570	1.510554
14:58:32.868	1.503334
14:58:33.269	1.473356
14:58:33.568	1.464846
14:58:33.868	1.482105
14:58:34.269	1.499550
14:58:34.568	1.440930
14:58:34.868	1.400097
14:58:35.268	1.378819
14:58:35.568	1.372684
14:58:35.969	1.379393
14:58:36.269	1.352679
14:58:36.569	1.303576
14:58:36.969	1.302186
14:58:37.269	1.288029
14:58:37.669	1.256195
14:58:37.968	1.233833
14:58:38.269	1.216554
14:58:38.669	1.177762
14:58:38.969	1.137038
14:58:39.369	1.125972
14:58:39.668	1.085139
14:58:39.969	1.085407
14:58:40.368	1.107928
14:58:40.668	1.098650
14:58:40.968	1.096352
14:58:41.368	1.072375
14:58:41.668	1.053573
14:58:42.069	1.036717
14:58:42.369	1.040620
14:58:42.768	1.040034
14:58:43.068	1.055689
14:58:43.469	1.047142
14:58:43.768	1.057220
14:58:44.069	1.050733
14:58:44.469	1.034526
14:58:44.768	1.041562
14:58:45.069	1.016922
14:58:45.469	1.036853
14:58:45.769	1.044898
14:58:46.168	1.024743
14:58:46.469	1.013037
14:58:46.869	0.993680
14:58:47.168	1.008244
14:58:47.469	1.017415
14:58:47.869	1.028867
14:58:48.168	1.003223
14:58:48.569	0.989758
14:58:48.869	0.976748
14:58:49.269	0.959813
14:58:49.569	0.978769
14:58:49.969	1.022615
14:58:50.269	1.014897
14:58:50.669	1.008988
14:58:50.968	1.008075
14:58:51.268	1.009293
14:58:51.668	1.020122
14:58:51.968	1.033136
14:58:52.269	1.013272
14:58:52.669	1.021262
14:58:52.969	1.011302
14:58:53.369	0.994979
14:58:53.669	1.001767
14:58:53.969	0.998691
14:58:54.368	0.996319
14:58:54.669	1.006941
14:58:54.969	1.022273
14:58:55.368	1.040890
14:58:55.669	1.034716
14:58:55.968	1.016656
14:58:56.369	0.998117
14:58:56.668	1.005011
14:58:56.968	1.003675
14:58:57.368	1.032892
14:58:57.669	1.029758
14:58:58.069	1.054382
14:58:58.369	1.043165
14:58:58.769	1.021584
14:58:59.069	0.995779
14:58:59.369	0.994981
14:58:59.768	1.020674
14:59:00.069	1.025194
14:59:00.469	1.034710
14:59:00.768	1.021639
14:59:01.068	1.009599
14:59:01.468	1.002263
14:59:01.769	0.998777
14:59:02.069	0.984235
14:59:02.469	1.009318
14:59:02.768	1.030961
14:59:03.169	1.032245
14:59:03.469	1.021841
14:59:03.868	1.019584
14:59:04.169	0.986543
14:59:04.568	0.983354
14:59:04.869	0.976651
14:59:05.169	0.979821
14:59:05.569	0.991234
14:59:05.869	0.987029
14:59:06.169	0.963808
14:59:06.568	0.958648
14:59:06.869	0.949578
14:59:07.169	0.936291
14:59:07.569	0.925563
14:59:07.868	0.916288
14:59:08.169	0.893085
14:59:08.569	0.883754
14:59:08.870	0.879730
14:59:09.168	0.867340
14:59:09.568	0.881537
14:59:09.869	0.876337
14:59:10.269	0.856632
14:59:10.569	0.812921
14:59:10.969	0.803304
14:59:11.269	0.784306
14:59:11.568	0.787178
14:59:11.970	0.775401
14:59:12.269	0.767338
14:59:12.668	0.773346
14:59:12.969	0.770963
14:59:13.269	0.759648
14:59:13.669	0.750460
14:59:13.969	0.749470
14:59:14.368	0.766103
14:59:14.668	0.768459
14:59:14.968	0.759112
14:59:15.369	0.772785
14:59:15.668	0.800214
14:59:16.069	0.765876
14:59:16.370	0.755594
14:59:16.669	0.746327
14:59:17.070	0.743816
14:59:17.369	0.756826
14:59:17.769	0.747406
14:59:18.069	0.720259
14:59:18.369	0.729881
14:59:18.768	0.736681
14:59:19.069	0.731189
14:59:19.368	0.734995
14:59:19.768	0.751112
14:59:20.069	0.746766
14:59:20.369	0.744496
14:59:20.769	0.746758
14:59:21.069	0.751322
14:59:21.468	0.741570
14:59:21.768	0.749423
14:59:22.069	0.739104
14:59:22.469	0.714515
14:59:22.769	0.699866
14:59:23.169	0.706972
14:59:23.469	0.716398
14:59:23.769	0.723455
14:59:24.169	0.721823
14:59:24.469	0.728189
14:59:24.869	0.724328
14:59:25.168	0.748370
14:59:25.469	0.761656
14:59:25.868	0.748590
14:59:26.169	0.742618
14:59:26.469	0.752230
14:59:26.869	0.751016
14:59:27.169	0.754051
14:59:27.469	0.747888
14:59:27.869	0.728852
14:59:28.168	0.740527
14:59:28.469	0.750168
14:59:28.869	0.715001
14:59:29.169	0.707732
14:59:29.468	0.696414
14:59:29.870	0.711002
14:59:30.169	0.714756
14:59:30.569	0.723553
14:59:30.870	0.723886
14:59:31.268	0.725134
14:59:31.568	0.721477
14:59:31.969	0.720287
14:59:32.269	0.725668
14:59:32.569	0.738969
14:59:32.969	0.720405
14:59:33.269	0.687262
14:59:33.569	0.700522
14:59:33.969	0.699066
14:59:34.269	0.728496
14:59:34.569	0.698124
14:59:34.970	0.719948
14:59:35.269	0.728300
14:59:35.569	0.757228
14:59:35.969	0.777270
14:59:36.269	0.755299
14:59:36.569	0.730094
14:59:36.969	0.715597
14:59:37.269	0.704694
14:59:37.569	0.727232
14:59:37.968	0.720483
14:59:38.268	0.721495
14:59:38.669	0.720917
14:59:38.969	0.728964
14:59:39.369	0.727611
14:59:39.670	0.718056
14:59:39.968	0.735329
14:59:40.369	0.717343
14:59:40.669	0.699247
14:59:40.969	0.734275
14:59:41.369	0.778714
14:59:41.669	0.761937
14:59:42.069	0.749847
14:59:42.369	0.777962
14:59:42.769	0.780828
14:59:43.069	0.749941
14:59:43.369	0.728621
14:59:43.769	0.706420
14:59:44.069	0.708180
14:59:44.369	0.711885
14:59:44.769	0.705672
14:59:45.069	0.731546
14:59:45.470	0.712037
14:59:45.769	0.704693
14:59:46.168	0.705838
14:59:46.469	0.709839
14:59:46.769	0.717025
14:59:47.169	0.739626
14:59:47.469	0.734153
14:59:47.769	0.731654
14:59:48.169	0.722262
14:59:48.469	0.733175
14:59:48.869	0.751559
14:59:49.169	0.761692
14:59:49.469	0.767955
14:59:49.869	0.747884
14:59:50.169	0.744961
14:59:50.469	0.744143
14:59:50.869	0.746883
14:59:51.169	0.760068
14:59:51.469	0.774986
14:59:51.869	0.777867
14:59:52.169	0.777411
14:59:52.569	0.772080
14:59:52.869	0.760543
14:59:53.269	0.748982
14:59:53.569	0.738362
14:59:53.869	0.743008
14:59:54.269	0.760427
14:59:54.569	0.781641
14:59:54.969	0.750811
14:59:55.269	0.733451
14:59:55.569	0.714844
14:59:55.969	0.700273
14:59:56.269	0.697684
14:59:56.569	0.715531
14:59:56.969	0.727236
14:59:57.269	0.722270
14:59:57.569	0.723685
14:59:57.969	0.716195
14:59:58.370	0.693476
14:59:58.668	0.689630
14:59:59.069	0.712571
14:59:59.369	0.722883
14:59:59.769	0.722803
15:00:00.069	0.736101
15:00:00.369	0.728525
15:00:00.770	0.714721
15:00:01.069	0.710840
15:00:01.369	0.723491
15:00:01.769	0.735048
15:00:02.069	0.729731
15:00:02.469	0.731988
15:00:02.769	0.741939
15:00:03.169	0.743250
15:00:03.469	0.730214
15:00:03.869	0.701662
15:00:04.169	0.697373
15:00:04.469	0.698151
15:00:04.869	0.708083
15:00:05.169	0.704935
15:00:05.469	0.699061
15:00:05.869	0.696018
15:00:06.170	0.692712
15:00:06.569	0.713518
15:00:06.869	0.731941
15:00:07.269	0.730299
15:00:07.569	0.751524
15:00:07.869	0.763999
15:00:08.269	0.758853
15:00:08.569	0.746558
15:00:08.969	0.762620
15:00:09.269	0.773361
15:00:09.569	0.763475
15:00:09.969	0.748811
15:00:10.269	0.745791
15:00:10.669	0.732282
15:00:10.969	0.714958
15:00:11.369	0.692126
15:00:11.669	0.687469
15:00:12.069	0.695072
15:00:12.369	0.702160
15:00:12.669	0.701670
15:00:13.070	0.693927
15:00:13.369	0.682967
15:00:13.769	0.675854
15:00:14.069	0.687761
15:00:14.469	0.671316
15:00:14.769	0.679214
15:00:15.170	0.709969
15:00:15.469	0.729319
15:00:15.770	0.745139
15:00:16.169	0.732035
15:00:16.469	0.727297
15:00:16.769	0.732911
15:00:17.170	0.714647
15:00:17.469	0.714306
15:00:17.769	0.720565
15:00:18.170	0.709250
15:00:18.469	0.702258
15:00:18.770	0.713751
15:00:19.169	0.713832
15:00:19.469	0.710084
15:00:19.769	0.717785
15:00:20.170	0.722279
15:00:20.469	0.714503
15:00:20.869	0.705203
15:00:21.169	0.718077
15:00:21.570	0.737123
15:00:21.870	0.746174
15:00:22.269	0.752012
15:00:22.569	0.760364
15:00:22.869	0.756164
15:00:23.269	0.727579
15:00:23.569	0.721954
15:00:23.870	0.717026
15:00:24.269	0.708495
15:00:24.569	0.696236
15:00:24.969	0.725424
15:00:25.269	0.721255
15:00:25.570	0.738674
15:00:25.969	0.713536
15:00:26.269	0.714790
15:00:26.570	0.712709
15:00:26.969	0.722152
15:00:27.269	0.722066
15:00:27.669	0.713661
15:00:27.969	0.706568
15:00:28.370	0.718962
15:00:28.669	0.724450
15:00:29.069	0.733557
15:00:29.369	0.736347
15:00:29.670	0.729241
15:00:30.069	0.731668
15:00:30.369	0.725304
15:00:30.670	0.728308
15:00:31.069	0.729695
15:00:31.369	0.720039
15:00:31.670	0.710303
15:00:32.070	0.737696
15:00:32.369	0.755961
15:00:32.670	0.753378
15:00:33.069	0.746201
15:00:33.370	0.756420
15:00:33.669	0.750218
15:00:34.069	0.774320
15:00:34.370	0.784007
15:00:34.769	0.813645
15:00:35.069	0.864669
15:00:35.470	0.888762
15:00:35.769	0.910274
15:00:36.170	0.947520
15:00:36.469	1.000343
15:00:36.769	1.016393
15:00:37.170	1.014952
15:00:37.469	1.065099
15:00:37.769	1.152301
15:00:38.170	1.168980
15:00:38.470	1.200998
15:00:38.869	1.290351
15:00:39.169	1.368649
15:00:39.569	1.451299
15:00:39.870	1.499146
15:00:40.170	1.610133
15:00:40.570	1.684512
15:00:40.870	1.747422
15:00:41.269	1.829180
15:00:41.570	1.891998
15:00:41.970	1.931228
15:00:42.269	1.947329
15:00:42.670	1.998927
15:00:42.969	2.010238
15:00:43.269	2.013275
15:00:43.670	2.005273
15:00:43.969	1.960371
15:00:44.369	1.939058
15:00:44.669	1.882677
15:00:44.969	1.864090
15:00:45.369	1.749571
15:00:45.670	1.628663
15:00:46.069	1.515550
15:00:46.369	1.454066
15:00:46.669	1.337199
15:00:47.070	1.229378
15:00:47.370	1.168499
15:00:47.670	1.099007
15:00:48.069	1.040689
15:00:48.370	1.033061
15:00:48.770	0.987030
15:00:49.070	0.911026
15:00:49.470	0.894416
15:00:49.769	0.874762
15:00:50.170	0.835200
15:00:50.469	0.820562
15:00:50.769	0.807155
15:00:51.169	0.772407
15:00:51.470	0.753898
15:00:51.769	0.766196
15:00:52.170	0.771339
15:00:52.469	0.747722
15:00:52.770	0.749716
15:00:53.169	0.728012
15:00:53.470	0.718390
15:00:53.770	0.714551
15:00:54.170	0.733128
15:00:54.470	0.744786
15:00:54.769	0.725759
15:00:55.170	0.703758
15:00:55.469	0.695312
15:00:55.870	0.724033
15:00:56.170	0.695317
15:00:56.570	0.698801
15:00:56.869	0.694419
15:00:57.270	0.671159
15:00:57.570	0.685550
15:00:57.870	0.676217
15:00:58.270	0.657416
15:00:58.669	0.672363
15:00:58.970	0.659851
15:00:59.370	0.658720
15:00:59.670	0.667068
15:01:00.070	0.675908
15:01:00.370	0.681662
15:01:00.769	0.686737
15:01:01.069	0.711335
15:01:01.369	0.714413
15:01:01.770	0.715230
15:01:02.070	0.711027
15:01:02.469	0.699851
15:01:02.769	0.721265
15:01:03.169	0.716929
15:01:03.470	0.717514
15:01:03.770	0.722448
15:01:04.170	0.726335
15:01:04.469	0.746542
15:01:04.769	0.744746
15:01:05.169	0.743183
15:01:05.470	0.714422
15:01:05.769	0.723853
15:01:06.169	0.724887
15:01:06.469	0.726554
15:01:06.770	0.727821
15:01:07.170	0.723672
15:01:07.470	0.725037
15:01:07.769	0.703822
15:01:08.170	0.703928
15:01:08.470	0.693453
15:01:08.770	0.691529
15:01:09.170	0.756762
15:01:09.470	0.773722
15:01:09.870	0.763699
15:01:10.169	0.748378
15:01:10.569	0.741582
15:01:10.870	0.742893
15:01:11.170	0.745751
15:01:11.569	0.761756
15:01:11.870	0.763389
15:01:12.170	0.757752
15:01:12.570	0.753688
15:01:12.870	0.756882
15:01:13.270	0.751619
15:01:13.571	0.721523
15:01:13.970	0.728076
15:01:14.269	0.735509
15:01:14.669	0.733160
15:01:14.970	0.725211
15:01:15.270	0.703948
15:01:15.669	0.685941
15:01:15.970	0.659684
15:01:16.370	0.671448
15:01:16.669	0.679042
15:01:17.069	0.663994
15:01:17.369	0.679820
15:01:17.770	0.698429
15:01:18.070	0.708042
15:01:18.470	0.711298
15:01:18.770	0.704052
15:01:19.070	0.715919
15:01:19.470	0.708636
15:01:19.769	0.704405
15:01:20.070	0.683778
15:01:20.470	0.660236
15:01:20.770	0.664578
15:01:21.070	0.691999
15:01:21.471	0.694038
15:01:21.770	0.688741
15:01:22.070	0.680941
15:01:22.470	0.684905
15:01:22.770	0.681063
15:01:23.070	0.703422
15:01:23.469	0.719013
15:01:23.769	0.723976
15:01:24.170	0.723066
15:01:24.470	0.722029
15:01:24.870	0.736602
15:01:25.171	0.745298
15:01:25.570	0.761399
15:01:25.869	0.766147
15:01:26.170	0.741893
15:01:26.570	0.718758
15:01:26.870	0.702571
15:01:27.269	0.687062
15:01:27.570	0.676442
15:01:27.970	0.661622
15:01:28.270	0.664777
15:01:28.569	0.655780
15:01:28.970	0.646800
15:01:29.270	0.659648
15:01:29.570	0.668123
15:01:29.970	0.658005
15:01:30.269	0.674820
15:01:30.670	0.687433
15:01:30.969	0.691430
15:01:31.369	0.690964
15:01:31.670	0.700008
15:01:31.970	0.704282
15:01:32.369	0.718452
15:01:32.669	0.701322
15:01:32.970	0.695638
15:01:33.370	0.691440
15:01:33.670	0.672085
15:01:33.970	0.675820
15:01:34.370	0.675938
15:01:34.670	0.700076
15:01:35.070	0.702075
15:01:35.369	0.708279
15:01:35.770	0.725222
15:01:36.070	0.737490
15:01:36.470	0.714618
15:01:36.770	0.706847
15:01:37.070	0.714157
15:01:37.470	0.734030
15:01:37.770	0.730548
15:01:38.169	0.710973
15:01:38.470	0.731493
15:01:38.869	0.762740
15:01:39.170	0.740672
15:01:39.470	0.739760
15:01:39.869	0.741231
15:01:40.170	0.705278
15:01:40.570	0.717692
15:01:40.869	0.706814
15:01:41.169	0.703134
15:01:41.570	0.717549
15:01:41.870	0.708229
15:01:42.269	0.718320
15:01:42.570	0.729175
15:01:42.870	0.735457
15:01:43.270	0.736470
15:01:43.570	0.703145
15:01:43.970	0.711920
15:01:44.271	0.713428
15:01:44.670	0.708358
15:01:44.969	0.706616
15:01:45.370	0.701589
15:01:45.669	0.696078
15:01:46.070	0.735414
15:01:46.370	0.733311
15:01:46.770	0.712418
15:01:47.070	0.708813
15:01:47.370	0.702423
15:01:47.770	0.715050
15:01:48.069	0.708519
15:01:48.370	0.694917
15:01:48.770	0.673905
15:01:49.070	0.717293
15:01:49.370	0.712103
15:01:49.770	0.715304
15:01:50.070	0.717135
15:01:50.370	0.718195
15:01:50.770	0.722627
15:01:51.069	0.682623
15:01:51.470	0.685214
15:01:51.770	0.690333
15:01:52.170	0.691840
15:01:52.470	0.683829
15:01:52.870	0.709037
15:01:53.170	0.728488
15:01:53.569	0.722270
15:01:53.869	0.710737
15:01:54.170	0.697928
15:01:54.570	0.704838
15:01:54.870	0.719188
15:01:55.170	0.718989
15:01:55.571	0.718220
15:01:55.869	0.718561
15:01:56.270	0.713992
15:01:56.570	0.699006
15:01:56.869	0.694326
15:01:57.270	0.662896
15:01:57.570	0.632701
15:01:57.970	0.641579
15:01:58.270	0.639199
15:01:58.570	0.635350
15:01:58.970	0.634446
15:01:59.270	0.645525
15:01:59.670	0.674184
15:01:59.970	0.669720
15:02:00.269	0.670476
15:02:00.670	0.658209
15:02:00.970	0.665735
15:02:01.269	0.678221
15:02:01.670	0.703903
15:02:01.970	0.734559
15:02:02.271	0.751716
15:02:02.670	0.754711
15:02:02.970	0.747405
15:02:03.370	0.752605
15:02:03.669	0.786027
15:02:03.970	0.821176
15:02:04.370	0.843318
15:02:04.670	0.885732
15:02:04.970	0.929855
15:02:05.370	1.008222
15:02:05.670	1.089467
15:02:06.070	1.174016
15:02:06.369	1.255019
15:02:06.769	1.366557
15:02:07.070	1.482608
15:02:07.369	1.541124
15:02:07.769	1.645229
15:02:08.070	1.795335
15:02:08.370	1.848762
15:02:08.770	1.946777
15:02:09.069	2.034554
15:02:09.369	2.071526
15:02:09.770	2.167859
15:02:10.070	2.367751
15:02:11.370	2.385344
15:02:11.670	2.386390
15:02:11.970	2.420179
15:02:12.370	2.408520
15:02:12.669	2.418905
15:02:13.070	2.439432
15:02:13.370	2.417242
15:02:13.770	2.350528
15:02:14.070	2.336667
15:02:14.470	2.245271
15:02:14.770	2.196938
15:02:15.070	2.202398
15:02:15.470	2.160496
15:02:15.770	2.135590
15:02:16.070	2.107952
15:02:16.470	2.093781
15:02:16.770	2.079634
15:02:17.070	2.006260
15:02:17.469	1.856256
15:02:18.770	1.870551
15:02:19.069	1.863695
15:02:19.370	1.823324
15:02:19.770	1.841048
15:02:20.070	1.877217
15:02:20.370	1.904878
15:02:20.770	1.931677
15:02:21.070	1.933095
15:02:21.370	1.920134
15:02:21.771	1.905291
15:02:22.070	1.847871
15:02:22.469	1.832886
15:02:22.770	1.824102
15:02:23.070	1.831108
15:02:23.470	1.832376
15:02:23.770	1.832842
15:02:24.170	1.837363
15:02:24.470	1.812871
15:02:24.770	1.785407
15:02:25.170	1.769584
15:02:25.470	1.777043
15:02:25.870	1.827460
15:02:26.170	1.817339
15:02:26.471	1.769365
15:02:26.870	1.760335
15:02:27.170	1.774604
15:02:27.470	1.810549
15:02:27.870	1.842087
15:02:28.170	1.849721
15:02:28.570	1.820935
15:02:28.870	1.820622
15:02:29.269	1.832744
15:02:29.570	1.822690
15:02:29.970	1.797351
15:02:30.271	1.804271
15:02:30.569	1.745338
15:02:30.970	1.726969
15:02:31.270	1.724916
15:02:31.570	1.741527
15:02:31.970	1.761408
15:02:32.269	1.780360
15:02:32.570	1.835905
15:02:32.970	1.810728
15:02:33.269	1.797998
15:02:33.570	1.766402
15:02:33.970	1.762692
15:02:34.269	1.771610
15:02:34.570	1.814991
15:02:34.970	1.797409
15:02:35.269	1.828246
15:02:35.670	1.835075
15:02:35.970	1.810921
15:02:36.370	1.822587
15:02:36.670	1.842801
15:02:36.970	1.823085
15:02:37.370	1.838063
15:02:37.669	1.864276
15:02:37.970	1.845389
15:02:38.369	1.864294
15:02:38.670	1.873643
15:02:39.070	1.860186
15:02:39.370	1.875682
15:02:39.770	1.880393
15:02:40.069	1.875253
15:02:40.370	1.884730
15:02:40.770	1.877343
15:02:41.069	1.859265
15:02:41.370	1.876103
15:02:41.770	1.942916
15:02:42.070	1.904163
15:02:42.370	1.921669
15:02:42.770	1.937925
15:02:43.070	1.962734
15:02:43.370	1.957732
15:02:43.770	1.956115
15:02:44.070	1.974126
15:02:44.370	2.048548
15:02:44.770	2.125536
15:02:45.070	2.154398
15:02:45.370	2.323484
15:02:46.670	2.433337
15:02:46.970	2.479061
15:02:47.370	2.589045
15:02:47.670	2.754679
15:02:48.070	2.916941
15:02:48.370	2.986100
15:02:48.670	3.128737
15:02:49.070	3.242424
15:02:49.370	3.427224
15:02:49.670	3.506655
15:02:50.070	3.606624
15:02:50.370	3.717310
15:02:50.770	3.818662
15:02:51.070	3.876707
15:02:51.370	3.994030
15:02:51.770	4.127003
15:02:52.071	4.166599
15:02:52.370	4.227312
15:02:52.770	4.261422
15:02:53.070	4.280163
15:02:53.370	4.212200
15:02:53.770	4.134107
15:02:54.070	4.089350
15:02:54.370	3.977263
15:02:54.770	3.889352
15:02:55.070	3.818292
15:02:55.369	3.705954
15:02:55.770	3.599229
15:02:56.070	3.544050
15:02:56.370	3.392161
15:02:56.770	3.273275
15:02:57.070	3.089858
15:02:57.470	2.915006
15:02:57.770	2.840844
15:02:58.170	2.711417
15:02:58.470	2.577281
15:02:58.770	2.516071
15:02:59.170	2.412612
15:02:59.470	2.296530
15:02:59.770	2.242274
15:03:00.170	2.146561
15:03:00.470	2.068924
15:03:00.770	2.036263
15:03:01.170	1.830836
15:03:02.470	1.780652
15:03:02.770	1.759585
15:03:03.071	1.735796
15:03:03.470	1.719735
15:03:03.770	1.698445
15:03:04.070	1.708611
15:03:04.470	1.686944
15:03:04.770	1.616828
15:03:05.170	1.600010
15:03:05.470	1.593310
15:03:05.869	1.548963
15:03:06.170	1.529828
15:03:06.570	1.511478
15:03:06.870	1.500120
15:03:07.170	1.502146
15:03:07.570	1.451081
15:03:07.870	1.428449
15:03:08.270	1.397643
15:03:08.570	1.331768
15:03:08.870	1.304181
15:03:09.270	1.259430
15:03:09.570	1.206122
15:03:09.970	1.178797
15:03:10.270	1.185353
15:03:10.570	1.166070
15:03:10.970	1.157452
15:03:11.270	1.119785
15:03:11.570	1.112466
15:03:11.970	1.096785
15:03:12.270	1.121517
15:03:12.670	1.151956
15:03:12.970	1.164160
15:03:13.370	1.097939
15:03:13.670	1.062249
15:03:14.070	1.036559
15:03:14.370	1.013473
15:03:14.670	0.964394
15:03:15.070	0.980544
15:03:15.370	0.989880
15:03:15.670	1.002834
15:03:16.070	1.018726
15:03:16.370	1.028113
15:03:16.770	1.015634
15:03:17.070	1.020729
15:03:17.370	1.027548
15:03:17.770	1.015052
15:03:18.070	1.001715
15:03:18.471	0.983086
15:03:18.770	0.967283
15:03:19.170	0.955804
15:03:19.470	0.959210
15:03:19.870	0.935504
15:03:20.170	0.944254
15:03:20.570	0.965077
15:03:20.870	0.966293
15:03:21.170	0.983675
15:03:21.570	0.992402
15:03:21.870	0.957291
15:03:22.270	0.910550
15:03:22.570	0.905577
15:03:22.871	0.906993
15:03:23.270	0.928126
15:03:23.570	0.915165
15:03:23.870	0.899310
15:03:24.270	0.898193
15:03:24.570	0.922824
15:03:24.870	0.905519
15:03:25.270	0.872053
15:03:25.570	0.844527
15:03:25.871	0.851097
15:03:26.271	0.855094
15:03:26.571	0.858840
15:03:26.970	0.837388
15:03:27.271	0.824510
15:03:27.570	0.814355
15:03:27.970	0.821767
15:03:28.271	0.833871
15:03:28.570	0.844332
15:03:28.970	0.863720
15:03:29.270	0.858358
15:03:29.571	0.850070
15:03:29.970	0.846999
15:03:30.270	0.852978
15:03:30.671	0.865850
15:03:30.970	0.879528
15:03:31.370	0.896465
15:03:31.670	0.896051
15:03:31.970	0.886030
15:03:32.370	0.907657
15:03:32.670	0.899178
15:03:32.970	0.892640
15:03:33.370	0.910538
15:03:33.671	0.933108
15:03:33.970	0.926798
15:03:34.370	0.921796
15:03:34.670	0.947515
15:03:34.970	0.932390
15:03:35.370	0.922596
15:03:35.670	0.933927
15:03:35.971	0.919475
15:03:36.370	0.922243
15:03:36.670	0.930992
15:03:36.970	0.921761
15:03:37.370	0.918962
15:03:37.670	0.931640
15:03:37.970	0.931038
15:03:38.371	0.926378
15:03:38.671	0.913364
15:03:39.071	0.888724
15:03:39.370	0.913545
15:03:39.671	0.911008
15:03:40.071	0.905195
15:03:40.370	0.891149
15:03:40.770	0.888477
15:03:41.071	0.897765
15:03:41.471	0.906456
15:03:41.770	0.893023
15:03:42.070	0.894969
15:03:42.470	0.888697
15:03:42.770	0.870739
15:03:43.071	0.881648
15:03:43.470	0.919128
15:03:43.770	0.914346
15:03:44.170	0.892060
15:03:44.471	0.928806
15:03:44.771	0.928808
15:03:45.171	0.906386
15:03:45.471	0.902946
15:03:45.771	0.901497
15:03:46.170	0.946462
15:03:46.471	0.949092
15:03:46.770	0.937839
15:03:47.171	0.925123
15:03:47.470	0.884666
15:03:47.870	0.887747
15:03:48.170	0.886711
15:03:48.571	0.866533
15:03:48.871	0.876180
15:03:49.270	0.864965
15:03:49.570	0.864219
15:03:49.871	0.857798
15:03:50.270	0.851804
15:03:50.570	0.839297
15:03:50.870	0.827500
15:03:51.270	0.839061
15:03:51.571	0.836214
15:03:51.870	0.837137
15:03:52.271	0.851087
15:03:52.570	0.850242
15:03:52.871	0.846584
15:03:53.271	0.840865
15:03:53.571	0.845154
15:03:53.870	0.850939
15:03:54.270	0.870251
15:03:54.571	0.852377
15:03:54.871	0.859805
15:03:55.271	0.872366
15:03:55.570	0.897284
15:03:55.871	0.890664
15:03:56.270	0.860668
15:03:56.571	0.842113
15:03:56.871	0.830066
15:03:57.271	0.825835
15:03:57.570	0.830605
15:03:57.871	0.862558
15:03:58.270	0.861584
15:03:58.571	0.879185
15:03:58.871	0.876804
15:03:59.270	0.875909
15:03:59.571	0.870232
15:03:59.871	0.871326
15:04:00.270	0.887924
15:04:00.571	0.915732
15:04:00.871	0.939369
15:04:01.271	0.930023
15:04:01.572	0.943032
15:04:01.971	0.933185
15:04:02.271	0.922356
15:04:02.571	0.907854
15:04:02.970	0.923546
15:04:03.271	0.964230
15:04:03.571	0.967534
15:04:03.971	0.939583
15:04:04.270	0.937565
15:04:04.670	1.009886
15:04:04.970	0.992044
15:04:05.371	0.953977
15:04:05.670	0.946352
15:04:05.971	0.977461
15:04:06.370	0.960812
15:04:06.670	0.945875
15:04:06.971	0.946979
15:04:07.371	0.974374
15:04:07.671	0.994018
15:04:08.071	0.990590
15:04:08.471	0.974433
15:04:08.771	0.965252
15:04:09.171	0.956195
15:04:09.471	0.953175
15:04:09.771	0.937425
15:04:10.171	0.955170
15:04:10.471	0.960846
15:04:10.771	0.943146
15:04:11.170	0.921716
15:04:11.471	0.930661
15:04:11.771	0.905882
15:04:12.170	0.871799
15:04:12.471	0.872028
15:04:12.871	0.866692
15:04:13.170	0.857778
15:04:13.471	0.857173
15:04:13.871	0.853499
15:04:14.171	0.882445
15:04:14.571	0.924917
15:04:14.871	0.886547
15:04:15.270	0.892825
15:04:15.570	0.893359
15:04:15.971	0.899859
15:04:16.271	0.927649
15:04:16.671	0.945819
15:04:16.970	0.947433
15:04:17.370	0.964497
15:04:17.670	0.956723
15:04:17.970	0.969877
15:04:18.371	1.015537
15:04:18.670	1.014033
15:04:18.971	0.999605
15:04:19.370	0.996453
15:04:19.671	1.012147
15:04:19.971	1.021609
15:04:20.371	1.041909
15:04:20.670	1.106929
15:04:20.971	1.121908
15:04:21.371	1.137256
15:04:21.671	1.138745
15:04:21.971	1.169515
15:04:22.370	1.163759
15:04:22.671	1.168842
15:04:23.071	1.159221
15:04:23.470	1.188822
15:04:23.770	1.176525
15:04:24.071	1.174943
15:04:24.472	1.166234
15:04:24.770	1.152909
15:04:25.071	1.159176
15:04:25.471	1.166078
15:04:25.770	1.175649
15:04:26.070	1.200276
15:04:26.471	1.228046
15:04:26.770	1.232026
15:04:27.071	1.224133
15:04:27.470	1.231900
15:04:27.771	1.236864
15:04:28.071	1.249606
15:04:28.471	1.198939
15:04:28.771	1.213144
15:04:29.071	1.227217
15:04:29.470	1.190252
15:04:29.770	1.206255
15:04:30.171	1.229508
15:04:30.471	1.230521
15:04:30.770	1.239349
15:04:31.171	1.261039
15:04:31.471	1.275723
15:04:31.871	1.242715
15:04:32.171	1.234568
15:04:32.471	1.268781
15:04:32.871	1.324127
15:04:33.171	1.347328
15:04:33.571	1.356099
15:04:33.871	1.344974
15:04:34.170	1.358526
15:04:34.571	1.332382
15:04:34.871	1.282999
15:04:35.171	1.282568
15:04:35.571	1.317844
15:04:35.871	1.275487
15:04:36.271	1.273778
15:04:36.570	1.218028
15:04:36.970	1.226725
15:04:37.271	1.233377
15:04:37.670	1.192066
15:04:37.970	1.190021
15:04:38.271	1.213251
15:04:38.670	1.162734
15:04:38.970	1.127781
15:04:39.370	1.130077
15:04:39.670	1.122962
15:04:39.971	1.167182
15:04:40.371	1.154439
15:04:40.671	1.143211
15:04:40.971	1.119283
15:04:41.371	1.082858
15:04:41.671	1.090421
15:04:41.970	1.108797
15:04:42.371	1.072929
15:04:42.670	1.066806
15:04:42.972	1.022092
15:04:43.371	1.040079
15:04:43.670	1.051750
15:04:44.070	1.027081
15:04:44.371	0.972295
15:04:44.671	0.949683
15:04:45.070	0.979898
15:04:45.370	0.998118
15:04:45.771	0.988949
15:04:46.071	0.969118
15:04:46.471	0.948167
15:04:46.770	0.950975
15:04:47.171	0.964944
15:04:47.471	0.963193
15:04:47.870	0.943866
15:04:48.170	0.932388
15:04:48.471	0.956203
15:04:48.871	0.951551
15:04:49.170	0.947163
15:04:49.571	0.905538
15:04:49.871	0.881289
15:04:50.171	0.882906
15:04:50.571	0.893814
15:04:50.871	0.893247
15:04:51.271	0.880207
15:04:51.571	0.868719
15:04:51.970	0.868206
15:04:52.271	0.848236
15:04:52.670	0.832459
15:04:52.971	0.843177
15:04:53.270	0.832640
15:04:53.671	0.850075
15:04:53.970	0.833037
15:04:54.371	0.841897
15:04:54.670	0.815246
15:04:55.071	0.829589
15:04:55.371	0.856700
15:04:55.670	0.854741
15:04:56.070	0.853523
15:04:56.371	0.832840
15:04:56.771	0.808557
15:04:57.071	0.801676
15:04:57.471	0.787854
15:04:57.771	0.775076
15:04:58.171	0.797290
15:04:58.470	0.794538
15:04:58.871	0.828441
15:04:59.171	0.840669
15:04:59.570	0.832291
15:04:59.871	0.843065
15:05:00.171	0.836457
15:05:00.571	0.862517
15:05:00.871	0.881135
15:05:01.271	0.881923
15:05:01.570	0.885372
15:05:01.970	0.889796
15:05:02.271	0.923654
15:05:02.671	0.918964
15:05:02.971	0.918144
15:05:03.271	0.936371
15:05:03.672	0.924168
15:05:03.971	0.915034
15:05:04.271	0.909767
15:05:04.671	0.901595
15:05:04.971	0.876325
15:05:05.371	0.917593
15:05:05.671	0.905128
15:05:06.071	0.903255
15:05:06.371	0.900042
15:05:06.771	0.906450
15:05:07.071	0.935970
15:05:07.371	0.945567
15:05:07.771	0.915982
15:05:08.071	0.908874
15:05:08.471	0.884210
15:05:08.771	0.853011
15:05:09.171	0.803879
15:05:09.471	0.797282
15:05:09.771	0.795916
15:05:10.171	0.792168
15:05:10.470	0.786597
15:05:10.771	0.772400
15:05:11.171	0.743174
15:05:11.471	0.741567
15:05:11.871	0.718816
15:05:12.171	0.720618
15:05:12.471	0.728402
15:05:12.871	0.704070
15:05:13.171	0.713267
15:05:13.471	0.711285
15:05:13.871	0.707397
15:05:14.171	0.724092
15:05:14.471	0.727391
15:05:14.870	0.722950
15:05:15.171	0.734493
15:05:15.470	0.717848
15:05:15.870	0.710672
15:05:16.171	0.735143
15:05:16.471	0.750362
15:05:16.871	0.751094
15:05:17.171	0.744178
15:05:17.471	0.777400
15:05:17.871	0.775028
15:05:18.171	0.755517
15:05:18.571	0.742383
15:05:18.871	0.746898
15:05:19.270	0.738166
15:05:19.571	0.754509
15:05:19.971	0.752789
15:05:20.270	0.769818
15:05:20.571	0.773872
15:05:20.971	0.774939
15:05:21.271	0.733852
15:05:21.571	0.736111
15:05:21.971	0.744388
15:05:22.271	0.724452
15:05:22.571	0.736056
15:05:22.970	0.750708
15:05:23.271	0.783783
15:05:23.571	0.795678
15:05:23.970	0.798219
15:05:24.271	0.798691
15:05:24.572	0.791630
15:05:24.971	0.792804
15:05:25.271	0.805625
15:05:25.671	0.831172
15:05:25.970	0.808276
15:05:26.371	0.798123
15:05:26.671	0.807764
15:05:26.971	0.795947
15:05:27.371	0.807398
15:05:27.671	0.824198
15:05:27.971	0.827473
15:05:28.371	0.821695
15:05:28.671	0.814889
15:05:29.070	0.784926
15:05:29.371	0.785167
15:05:29.771	0.821888
15:05:30.071	0.817490
15:05:30.370	0.818523
15:05:30.771	0.840264
15:05:31.071	0.837082
15:05:31.371	0.859294
15:05:31.771	0.828384
15:05:32.071	0.802025
15:05:32.471	0.822488
15:05:32.871	0.874399
15:05:33.171	0.885159
15:05:33.470	0.862724
15:05:33.871	0.845640
15:05:34.171	0.837967
15:05:34.471	0.798661