Chart Recorder Data File Mon, Sep 23, 2024 11:30 AM
Time (s)	CH1 (V)  
11:12:29.721	1.873805
11:12:30.622	1.848807
11:12:30.922	1.792640
11:12:31.221	1.812999
11:12:31.622	1.764129
11:12:31.922	1.783986
11:12:32.321	1.783900
11:12:32.622	1.819678
11:12:33.022	1.799868
11:12:33.322	1.818649
11:12:33.622	1.800120
11:12:34.022	1.767017
11:12:34.322	1.806159
11:12:34.722	1.823587
11:12:35.022	1.867570
11:12:35.322	1.858590
11:12:35.721	1.851559
11:12:36.022	1.855361
11:12:36.422	1.879869
11:12:36.722	1.891865
11:12:37.122	1.822280
11:12:37.422	1.753512
11:12:37.822	1.764448
11:12:38.122	1.803154
11:12:38.422	1.792315
11:12:38.822	1.778653
11:12:39.122	1.816119
11:12:39.421	1.842137
11:12:39.822	1.858348
11:12:40.121	1.837007
11:12:40.421	1.797990
11:12:40.822	1.806096
11:12:41.122	1.804903
11:12:41.422	1.851105
11:12:41.822	1.810988
11:12:42.122	1.817338
11:12:42.522	1.801182
11:12:42.822	1.811759
11:12:43.122	1.792748
11:12:43.522	1.760610
11:12:43.822	1.763554
11:12:44.222	1.772598
11:12:44.521	1.816383
11:12:44.922	1.810856
11:12:45.222	1.753995
11:12:45.622	1.791610
11:12:45.922	1.803016
11:12:46.322	1.820782
11:12:46.621	1.834897
11:12:47.022	1.815143
11:12:47.322	1.807699
11:12:47.722	1.897514
11:12:48.022	1.875478
11:12:48.322	1.826969
11:12:48.721	1.839964
11:12:49.022	1.826765
11:12:49.321	1.775299
11:12:49.722	1.754880
11:12:50.022	1.778023
11:12:50.322	1.800473
11:12:50.722	1.814219
11:12:51.023	1.797855
11:12:51.422	1.791437
11:12:51.722	1.812131
11:12:52.121	1.832206
11:12:52.422	1.860430
11:12:52.822	1.829738
11:12:53.122	1.808309
11:12:53.522	1.749003
11:12:53.821	1.834092
11:12:54.222	1.858389
11:12:54.522	1.806563
11:12:54.922	1.794140
11:12:55.222	1.796775
11:12:55.622	1.771959
11:12:55.921	1.786270
11:12:56.221	1.742929
11:12:56.622	1.778172
11:12:56.922	1.780271
11:12:57.222	1.769636
11:12:57.622	1.768790
11:12:57.922	1.761523
11:12:58.222	1.793680
11:12:58.621	1.805406
11:12:58.922	1.775732
11:12:59.222	1.784713
11:12:59.622	1.809934
11:12:59.922	1.789294
11:13:00.322	1.758716
11:13:00.622	1.694510
11:13:01.022	1.701234
11:13:01.322	1.696861
11:13:01.722	1.709025
11:13:02.022	1.715567
11:13:02.322	1.692944
11:13:02.722	1.662068
11:13:03.021	1.691872
11:13:03.322	1.644818
11:13:03.722	1.608800
11:13:04.022	1.623160
11:13:04.421	1.610629
11:13:04.721	1.576011
11:13:05.122	1.638826
11:13:05.422	1.644678
11:13:05.822	1.656137
11:13:06.122	1.692832
11:13:06.422	1.706165
11:13:06.822	1.651144
11:13:07.122	1.636518
11:13:07.522	1.702320
11:13:07.822	1.743596
11:13:08.222	1.789678
11:13:08.522	1.861242
11:13:08.822	1.933059
11:13:09.222	1.980171
11:13:09.522	2.154901
11:13:09.822	2.198312
11:13:10.222	2.450130
11:13:11.522	2.535036
11:13:11.821	2.586564
11:13:12.222	2.655233
11:13:12.522	2.785762
11:13:12.921	2.802197
11:13:13.221	2.889763
11:13:13.622	2.891348
11:13:13.922	2.900182
11:13:14.223	3.001152
11:13:14.622	3.011798
11:13:14.922	3.028644
11:13:15.322	3.073648
11:13:15.622	3.102070
11:13:16.022	3.047067
11:13:16.321	3.046495
11:13:16.722	3.086495
11:13:17.022	3.061686
11:13:17.322	3.127122
11:13:17.721	3.081644
11:13:18.022	3.218396
11:13:18.321	3.180747
11:13:18.722	3.180567
11:13:19.022	3.130089
11:13:19.322	3.136068
11:13:19.722	3.139839
11:13:20.021	3.122433
11:13:20.322	3.082553
11:13:20.722	3.039829
11:13:21.022	3.094966
11:13:21.322	3.067605
11:13:21.722	2.929886
11:13:22.022	2.925136
11:13:22.422	2.933675
11:13:22.722	2.881090
11:13:23.022	2.879961
11:13:23.422	2.795015
11:13:23.722	2.737070
11:13:24.122	2.627393
11:13:24.422	2.553134
11:13:24.722	2.448841
11:13:25.122	2.358435
11:13:25.422	2.302494
11:13:25.822	2.170683
11:13:26.122	2.050606
11:13:26.522	1.646968
11:13:27.822	1.617008
11:13:28.122	1.568326
11:13:28.522	1.466427
11:13:28.821	1.413904
11:13:29.222	1.317217
11:13:29.522	1.286019
11:13:29.921	1.265880
11:13:30.222	1.231783
11:13:30.622	1.220687
11:13:30.921	1.139398
11:13:31.322	1.127925
11:13:31.622	1.130707
11:13:32.023	1.109290
11:13:32.322	1.133371
11:13:32.622	1.128957
11:13:33.022	1.125814
11:13:33.322	1.073515
11:13:33.622	1.054725
11:13:34.022	1.011108
11:13:34.322	1.004419
11:13:34.721	1.061574
11:13:35.022	1.060330
11:13:35.422	1.070573
11:13:35.722	1.025071
11:13:36.122	1.023333
11:13:36.422	1.018938
11:13:36.722	1.045988
11:13:37.122	1.039479
11:13:37.422	1.046525
11:13:37.822	1.031122
11:13:38.122	1.074280
11:13:38.422	1.089810
11:13:38.822	1.150484
11:13:39.122	1.166692
11:13:39.522	1.317189
11:13:39.822	1.389415
11:13:40.221	1.505659
11:13:40.522	1.529576
11:13:40.821	1.656504
11:13:41.222	1.757913
11:13:41.522	1.781290
11:13:41.822	1.877131
11:13:42.222	1.977688
11:13:42.521	2.053877
11:13:42.922	2.158385
11:13:43.222	2.420250
11:13:44.522	2.490855
11:13:44.822	2.522032
11:13:45.222	2.557730
11:13:45.522	2.569711
11:13:45.922	2.632393
11:13:46.222	2.756951
11:13:46.522	2.705221
11:13:46.922	2.763356
11:13:47.222	2.765605
11:13:47.522	2.802615
11:13:47.921	2.877869
11:13:48.222	2.878579
11:13:48.522	2.836468
11:13:48.922	2.847398
11:13:49.222	2.878112
11:13:49.522	2.889274
11:13:49.922	2.914307
11:13:50.222	2.863396
11:13:50.622	2.930633
11:13:50.922	2.963944
11:13:51.222	2.921003
11:13:51.622	2.892173
11:13:51.922	2.917988
11:13:52.322	2.872162
11:13:52.622	2.877745
11:13:53.022	2.877260
11:13:53.322	2.845728
11:13:53.722	2.860223
11:13:54.022	2.768292
11:13:54.422	2.600786
11:13:54.722	2.603944
11:13:55.122	2.462709
11:13:55.422	2.440983
11:13:55.822	2.233787
11:13:56.122	2.095344
11:13:56.422	2.052433
11:13:56.822	1.690681
11:13:58.122	1.492922
11:13:58.422	1.475179
11:13:58.822	1.367295
11:13:59.122	1.267835
11:13:59.422	1.240541
11:13:59.822	1.203484
11:14:00.122	1.204377
11:14:00.523	1.150171
11:14:00.822	1.147382
11:14:01.222	1.074961
11:14:01.522	1.074298
11:14:01.822	1.115036
11:14:02.222	1.065714
11:14:02.522	1.044247
11:14:02.822	1.047255
11:14:03.222	1.009550
11:14:03.522	1.011625
11:14:03.922	1.004645
11:14:04.222	0.975914
11:14:04.522	0.993157
11:14:04.922	0.968466
11:14:05.222	0.963175
11:14:05.622	0.963457
11:14:05.922	0.953859
11:14:06.322	0.928220
11:14:06.622	0.893261
11:14:06.923	0.939502
11:14:07.322	0.914439
11:14:07.622	0.893119
11:14:07.922	0.888703
11:14:08.322	0.843235
11:14:08.622	0.824480
11:14:08.922	0.815264
11:14:09.322	0.855298
11:14:09.622	0.870985
11:14:09.922	0.836823
11:14:10.322	0.802901
11:14:10.622	0.813847
11:14:10.922	0.811929
11:14:11.322	0.781230
11:14:11.622	0.768746
11:14:12.023	0.779729
11:14:12.322	0.776036
11:14:12.722	0.754825
11:14:13.022	0.764379
11:14:13.422	0.789706
11:14:13.722	0.750323
11:14:14.122	0.792565
11:14:14.422	0.767867
11:14:14.822	0.753458
11:14:15.122	0.755612
11:14:15.422	0.740847
11:14:15.822	0.784253
11:14:16.122	0.789909
11:14:16.522	0.742178
11:14:16.822	0.764960
11:14:17.222	0.730022
11:14:17.522	0.713375
11:14:17.823	0.751857
11:14:18.222	0.726471
11:14:18.522	0.729232
11:14:18.922	0.725756
11:14:19.222	0.735967
11:14:19.522	0.742564
11:14:19.922	0.735357
11:14:20.222	0.767255
11:14:20.623	0.754987
11:14:20.922	0.739456
11:14:21.322	0.750789
11:14:21.623	0.741906
11:14:22.023	0.719674
11:14:22.322	0.739701
11:14:22.722	0.722915
11:14:23.022	0.733064
11:14:23.422	0.700737
11:14:23.723	0.685395
11:14:24.022	0.710653
11:14:24.422	0.684452
11:14:24.722	0.681489
11:14:25.122	0.695824
11:14:25.422	0.701257
11:14:25.722	0.672046
11:14:26.123	0.698979
11:14:26.523	0.680240
11:14:26.822	0.688622
11:14:27.223	0.707120
11:14:27.523	0.708610
11:14:27.823	0.712676
11:14:28.222	0.679794
11:14:28.522	0.655319
11:14:28.923	0.660395
11:14:29.323	0.686052
11:14:29.623	0.663459
11:14:30.022	0.645367
11:14:30.322	0.672593
11:14:30.723	0.674336
11:14:31.023	0.618770
11:14:31.422	0.611707
11:14:31.722	0.614974
11:14:32.022	0.636444
11:14:32.422	0.644623
11:14:32.722	0.634566
11:14:33.122	0.596192
11:14:33.422	0.606329
11:14:33.723	0.603570
11:14:34.122	0.622807
11:14:34.422	0.601664
11:14:34.822	0.619769
11:14:35.122	0.621856
11:14:35.522	0.573621
11:14:35.823	0.563274
11:14:36.122	0.580030
11:14:36.522	0.557163
11:14:36.823	0.522086
11:14:37.122	0.526960
11:14:37.522	0.515710
11:14:37.822	0.517666
11:14:38.122	0.535607
11:14:38.522	0.515158
11:14:38.823	0.511702
11:14:39.122	0.490402
11:14:39.522	0.511381
11:14:39.822	0.492900
11:14:40.123	0.479884
11:14:40.523	0.472978
11:14:40.823	0.471671
11:14:41.222	0.478142
11:14:41.523	0.464981
11:14:41.823	0.461506
11:14:42.222	0.446053
11:14:42.522	0.426024
11:14:42.922	0.448030
11:14:43.223	0.442510
11:14:43.622	0.429044
11:14:43.923	0.420634
11:14:44.323	0.412466
11:14:44.623	0.418065
11:14:44.922	0.404652
11:14:45.323	0.398909
11:14:45.623	0.393737
11:14:45.922	0.389151
11:14:46.322	0.396000
11:14:46.622	0.401731
11:14:46.923	0.381225
11:14:47.322	0.384440
11:14:47.623	0.383265
11:14:47.923	0.393740
11:14:48.322	0.386547
11:14:48.622	0.385797
11:14:48.923	0.379222
11:14:49.323	0.366175
11:14:49.622	0.391096
11:14:50.022	0.380312
11:14:50.323	0.370506
11:14:50.723	0.350133
11:14:51.023	0.340948
11:14:51.422	0.360080
11:14:51.723	0.373694
11:14:52.023	0.373192
11:14:52.423	0.373384
11:14:52.723	0.377151
11:14:53.023	0.386952
11:14:53.423	0.370727
11:14:53.722	0.373483
11:14:54.023	0.391289
11:14:54.422	0.408608
11:14:54.723	0.387667
11:14:55.123	0.390999
11:14:55.422	0.391738
11:14:55.823	0.389355
11:14:56.123	0.378912
11:14:56.522	0.388121
11:14:56.822	0.409801
11:14:57.123	0.415856
11:14:57.523	0.412210
11:14:57.823	0.412853
11:14:58.223	0.409349
11:14:58.522	0.409386
11:14:58.922	0.391768
11:14:59.223	0.399155
11:14:59.623	0.420253
11:14:59.922	0.425273
11:15:00.223	0.443774
11:15:00.622	0.435553
11:15:00.923	0.448131
11:15:01.323	0.455024
11:15:01.623	0.426449
11:15:01.922	0.437408
11:15:02.323	0.439102
11:15:02.622	0.424579
11:15:02.922	0.418626
11:15:03.323	0.456590
11:15:03.623	0.419620
11:15:04.022	0.462968
11:15:04.323	0.468307
11:15:04.722	0.460639
11:15:05.023	0.462277
11:15:05.423	0.481995
11:15:05.722	0.481678
11:15:06.023	0.476747
11:15:06.423	0.453882
11:15:06.722	0.451412
11:15:07.023	0.480664
11:15:07.423	0.508132
11:15:07.723	0.495713
11:15:08.022	0.478773
11:15:08.423	0.494363
11:15:08.723	0.556910
11:15:09.022	0.586243
11:15:09.423	0.620092
11:15:09.723	0.704853
11:15:10.023	0.733341
11:15:10.423	0.818568
11:15:10.723	0.946939
11:15:11.122	1.039332
11:15:11.423	1.060114
11:15:11.822	1.175708
11:15:12.122	1.290395
11:15:12.423	1.312427
11:15:12.824	1.412579
11:15:13.122	1.565363
11:15:13.523	1.623345
11:15:13.823	1.634297
11:15:14.122	1.752649
11:15:14.523	1.784307
11:15:14.823	1.797307
11:15:15.223	1.836071
11:15:15.522	1.837635
11:15:15.923	1.908685
11:15:16.222	1.907235
11:15:16.623	1.967682
11:15:16.923	2.068136
11:15:17.223	2.051923
11:15:17.623	1.981957
11:15:17.923	2.011542
11:15:18.223	2.073228
11:15:18.623	2.096505
11:15:18.924	2.108807
11:15:19.323	2.071164
11:15:19.623	2.127840
11:15:19.923	2.172534
11:15:20.323	2.127415
11:15:20.623	2.195113
11:15:20.923	2.210940
11:15:22.222	2.262296
11:15:22.523	2.263137
11:15:22.923	2.255600
11:15:23.223	2.299444
11:15:23.623	2.313480
11:15:23.923	2.288421
11:15:24.323	2.260114
11:15:24.623	2.147301
11:15:25.023	2.089985
11:15:25.323	1.803347
11:15:26.623	1.693722
11:15:26.923	1.579169
11:15:27.323	1.475597
11:15:27.623	1.365893
11:15:28.023	1.280257
11:15:28.323	1.233807
11:15:28.723	1.210678
11:15:29.023	1.152995
11:15:29.323	1.094906
11:15:29.723	1.073337
11:15:30.022	1.057448
11:15:30.323	1.033699
11:15:30.723	1.035148
11:15:31.023	1.059169
11:15:31.323	1.066741
11:15:31.722	1.069853
11:15:32.023	1.061943
11:15:32.323	1.110243
11:15:32.723	1.081042
11:15:33.023	1.050357
11:15:33.322	1.044215
11:15:33.723	1.062765
11:15:34.023	1.070319
11:15:34.323	1.079813
11:15:34.723	1.054251
11:15:35.023	1.075187
11:15:35.323	1.089494
11:15:35.723	1.130819
11:15:36.022	1.125738
11:15:36.323	1.123074
11:15:36.723	1.116059
11:15:37.023	1.114744
11:15:37.423	1.147270
11:15:37.723	1.138482
11:15:38.123	1.142024
11:15:38.422	1.159961
11:15:38.822	1.156217
11:15:39.123	1.164048
11:15:39.523	1.175308
11:15:39.822	1.208213
11:15:40.223	1.205207
11:15:40.522	1.214133
11:15:40.923	1.256846
11:15:41.223	1.239215
11:15:41.523	1.211534
11:15:41.924	1.239717
11:15:42.224	1.223154
11:15:42.522	1.222661
11:15:42.923	1.285196
11:15:43.223	1.259315
11:15:43.523	1.246536
11:15:43.922	1.238933
11:15:44.223	1.258747
11:15:44.522	1.248217
11:15:44.923	1.288210
11:15:45.223	1.282307
11:15:45.623	1.270061
11:15:45.922	1.329433
11:15:46.323	1.277155
11:15:46.623	1.268351
11:15:46.923	1.274719
11:15:47.322	1.299990
11:15:47.622	1.304236
11:15:48.023	1.276980
11:15:48.323	1.278715
11:15:48.623	1.258200
11:15:49.023	1.270230
11:15:49.323	1.284098
11:15:49.623	1.282518
11:15:50.024	1.248769
11:15:50.323	1.204663
11:15:50.623	1.208387
11:15:51.023	1.217424
11:15:51.323	1.170552
11:15:51.623	1.175326
11:15:52.023	1.142723
11:15:52.323	1.113822
11:15:52.723	1.121334
11:15:53.023	1.148787
11:15:53.323	1.085357
11:15:53.723	1.051997
11:15:54.023	1.011375
11:15:54.423	1.016126
11:15:54.722	1.032927
11:15:55.123	0.978416
11:15:55.423	0.922028
11:15:55.822	0.885583
11:15:56.122	0.870246
11:15:56.423	0.828793
11:15:56.823	0.805958
11:15:57.123	0.802127
11:15:57.423	0.795139
11:15:57.823	0.742954
11:15:58.123	0.728759
11:15:58.423	0.709241
11:15:58.823	0.657210
11:15:59.123	0.644460
11:15:59.523	0.620854
11:15:59.823	0.629070
11:16:00.223	0.620314
11:16:00.523	0.563978
11:16:00.923	0.542237
11:16:01.223	0.523097
11:16:01.623	0.518067
11:16:01.922	0.489874
11:16:02.322	0.533581
11:16:02.623	0.521427
11:16:03.023	0.463316
11:16:03.323	0.470872
11:16:03.623	0.464268
11:16:04.023	0.452694
11:16:04.323	0.436035
11:16:04.623	0.419782
11:16:05.023	0.409365
11:16:05.323	0.395344
11:16:05.623	0.396565
11:16:06.023	0.416674
11:16:06.323	0.418724
11:16:06.622	0.404340
11:16:07.023	0.398693
11:16:07.322	0.387781
11:16:07.723	0.376788
11:16:08.023	0.392302
11:16:08.323	0.370550
11:16:08.723	0.396172
11:16:09.023	0.373226
11:16:09.422	0.369397
11:16:09.722	0.367443
11:16:10.123	0.371232
11:16:10.423	0.357015
11:16:10.723	0.358640
11:16:11.122	0.368799
11:16:11.423	0.349536
11:16:11.722	0.356000
11:16:12.123	0.356283
11:16:12.422	0.340264
11:16:12.823	0.332321
11:16:13.122	0.327112
11:16:13.423	0.307762
11:16:13.823	0.320480
11:16:14.123	0.317990
11:16:14.523	0.330629
11:16:14.823	0.319564
11:16:15.223	0.295744
11:16:15.523	0.311452
11:16:15.923	0.306303
11:16:16.222	0.300719
11:16:16.523	0.304125
11:16:16.922	0.304213
11:16:17.222	0.317956
11:16:17.523	0.323011
11:16:17.922	0.303041
11:16:18.223	0.302984
11:16:18.523	0.317112
11:16:18.923	0.308639
11:16:19.223	0.297986
11:16:19.623	0.296311
11:16:19.922	0.303005
11:16:20.322	0.298405
11:16:20.624	0.292613
11:16:21.023	0.266729
11:16:21.322	0.291851
11:16:21.623	0.304435
11:16:22.023	0.308836
11:16:22.323	0.292370
11:16:22.723	0.311821
11:16:23.023	0.327401
11:16:23.422	0.318453
11:16:23.723	0.325610
11:16:24.123	0.321965
11:16:24.423	0.317348
11:16:24.723	0.311423
11:16:25.123	0.296148
11:16:25.422	0.303783
11:16:25.722	0.298926
11:16:26.123	0.299372
11:16:26.422	0.305868
11:16:26.723	0.309446
11:16:27.123	0.283657
11:16:27.423	0.270186
11:16:27.823	0.304706
11:16:28.123	0.308436
11:16:28.523	0.297339
11:16:28.823	0.316625
11:16:29.223	0.309248
11:16:29.523	0.298924
11:16:29.823	0.293676
11:16:30.223	0.296161
11:16:30.523	0.288184
11:16:30.823	0.289490
11:16:31.223	0.288827
11:16:31.523	0.299001
11:16:31.823	0.298753
11:16:32.222	0.272530
11:16:32.523	0.287184
11:16:32.823	0.282209
11:16:33.223	0.254548
11:16:33.523	0.266869
11:16:33.923	0.271607
11:16:34.223	0.258489
11:16:34.523	0.257987
11:16:34.923	0.259311
11:16:35.223	0.265603
11:16:35.623	0.275073
11:16:35.923	0.274506
11:16:36.223	0.269881
11:16:36.623	0.264424
11:16:36.923	0.295200
11:16:37.323	0.242553
11:16:37.623	0.250177
11:16:38.023	0.242238
11:16:38.323	0.270239
11:16:38.623	0.271265
11:16:39.023	0.247032
11:16:39.323	0.224092
11:16:39.724	0.226199
11:16:40.023	0.253733
11:16:40.423	0.242053
11:16:40.723	0.250740
11:16:41.123	0.247728
11:16:41.423	0.243955
11:16:41.723	0.238864
11:16:42.123	0.219879
11:16:42.423	0.230075
11:16:42.823	0.233374
11:16:43.123	0.224563
11:16:43.524	0.249757
11:16:43.824	0.235270
11:16:44.223	0.226963
11:16:44.523	0.215752
11:16:44.923	0.215102
11:16:45.223	0.226897
11:16:45.623	0.223523
11:16:45.923	0.223173
11:16:46.222	0.233077
11:16:46.623	0.245443
11:16:46.923	0.227502
11:16:47.323	0.226437
11:16:47.622	0.210193
11:16:48.023	0.215025
11:16:48.323	0.209109
11:16:48.624	0.206859
11:16:49.023	0.212949
11:16:49.323	0.209930
11:16:49.723	0.215932
11:16:50.023	0.219589
11:16:50.423	0.228837
11:16:50.723	0.205853
11:16:51.123	0.215128
11:16:51.423	0.222867
11:16:51.823	0.225626
11:16:52.122	0.228335
11:16:52.523	0.236791
11:16:52.823	0.224457
11:16:53.222	0.229938
11:16:53.523	0.226827
11:16:53.823	0.222836
11:16:54.222	0.231865
11:16:54.523	0.211506
11:16:54.823	0.223204
11:16:55.223	0.215909
11:16:55.523	0.224907
11:16:55.923	0.229754
11:16:56.223	0.200240
11:16:56.623	0.210745
11:16:56.923	0.204252
11:16:57.323	0.205948
11:16:57.623	0.228389
11:16:57.923	0.222341
11:16:58.323	0.232052
11:16:58.623	0.215702
11:16:58.923	0.203849
11:16:59.323	0.206810
11:16:59.623	0.196860
11:16:59.923	0.203142
11:17:00.323	0.221616
11:17:00.623	0.195681
11:17:01.023	0.185205
11:17:01.323	0.206902
11:17:01.724	0.223024
11:17:02.023	0.216998
11:17:02.423	0.181757
11:17:02.723	0.219034
11:17:03.023	0.215605
11:17:03.423	0.215422
11:17:03.723	0.228383
11:17:04.123	0.205277
11:17:04.423	0.190855
11:17:04.723	0.221244
11:17:05.123	0.201266
11:17:05.423	0.203856
11:17:05.823	0.204118
11:17:06.123	0.211677
11:17:06.523	0.224531
11:17:06.823	0.214240
11:17:07.123	0.206863
11:17:07.523	0.197155
11:17:07.823	0.207092
11:17:08.123	0.216622
11:17:08.523	0.207391
11:17:08.823	0.199735
11:17:09.223	0.195708
11:17:09.523	0.215509
11:17:09.823	0.201069
11:17:10.223	0.188998
11:17:10.523	0.200340
11:17:10.923	0.204929
11:17:11.223	0.205499
11:17:11.623	0.211493
11:17:11.923	0.215927
11:17:12.323	0.221009
11:17:12.623	0.216947
11:17:13.023	0.226013
11:17:13.323	0.221427
11:17:13.723	0.212770
11:17:14.023	0.232022
11:17:14.423	0.242812
11:17:14.723	0.235400
11:17:15.023	0.228401
11:17:15.424	0.209510
11:17:15.723	0.198567
11:17:16.123	0.193613
11:17:16.423	0.233492
11:17:16.823	0.221543
11:17:17.123	0.207441
11:17:17.523	0.208042
11:17:17.824	0.210881
11:17:18.223	0.233224
11:17:18.523	0.226855
11:17:18.823	0.223971
11:17:19.223	0.223885
11:17:19.523	0.222420
11:17:19.923	0.207490
11:17:20.223	0.233111
11:17:20.623	0.223344
11:17:20.923	0.188395
11:17:21.323	0.213566
11:17:21.623	0.215956
11:17:21.923	0.212819
11:17:22.324	0.212187
11:17:22.623	0.207756
11:17:22.923	0.243231
11:17:23.323	0.243993
11:17:23.624	0.232331
11:17:23.923	0.227984
11:17:24.324	0.227299
11:17:24.623	0.226476
11:17:25.024	0.218441
11:17:25.323	0.230728
11:17:25.723	0.244340
11:17:26.024	0.230898
11:17:26.423	0.205262
11:17:26.723	0.209517
11:17:27.123	0.236713
11:17:27.423	0.228377
11:17:27.823	0.219880
11:17:28.123	0.223325
11:17:28.523	0.230490
11:17:28.824	0.213213
11:17:29.125	0.219214
11:17:29.524	0.222958
11:17:29.824	0.204821
11:17:30.123	0.205966
11:17:30.523	0.208717
11:17:30.823	0.211874
11:17:31.224	0.204680
11:17:31.523	0.209227
11:17:31.923	0.213086
11:17:32.223	0.211883
11:17:32.623	0.212578
11:17:32.923	0.202710
11:17:33.223	0.204549
11:17:33.624	0.191345
11:17:33.923	0.201065
11:17:34.323	0.219612
11:17:34.624	0.227417
11:17:34.923	0.221897
11:17:35.323	0.231665
11:17:35.624	0.220216
11:17:35.923	0.194658
11:17:36.323	0.198208
11:17:36.623	0.202045
11:17:36.923	0.196472
11:17:37.323	0.193721
11:17:37.624	0.184717
11:17:37.924	0.180156
11:17:38.324	0.209712
11:17:38.623	0.212944
11:17:38.923	0.225735
11:17:39.324	0.220293
11:17:39.623	0.206796
11:17:39.924	0.185158
11:17:40.324	0.179383
11:17:40.623	0.190495
11:17:41.023	0.208161
11:17:41.324	0.210911
11:17:41.724	0.190866
11:17:42.023	0.168976
11:17:42.424	0.188182
11:17:42.723	0.191852
11:17:43.023	0.195243
11:17:43.423	0.189900
11:17:43.723	0.191836
11:17:44.024	0.188208
11:17:44.424	0.182729
11:17:44.723	0.191561
11:17:45.024	0.183759
11:17:45.424	0.193569
11:17:45.724	0.196460
11:17:46.124	0.190463
11:17:46.424	0.218843
11:17:46.824	0.201899
11:17:47.124	0.199671
11:17:47.523	0.197439
11:17:47.824	0.196640
11:17:48.223	0.184905
11:17:48.523	0.196394
11:17:48.924	0.221273
11:17:49.224	0.209304
11:17:49.624	0.192981
11:17:49.923	0.209056
11:17:50.223	0.204536
11:17:50.624	0.211177
11:17:50.924	0.214346
11:17:51.224	0.214108
11:17:51.623	0.211696
11:17:51.924	0.209679
11:17:52.224	0.202355
11:17:52.623	0.188034
11:17:52.924	0.182193
11:17:53.324	0.193894
11:17:53.624	0.192496
11:17:54.023	0.211913
11:17:54.323	0.221504
11:17:54.724	0.223905
11:17:55.024	0.206596
11:17:55.423	0.209184
11:17:55.724	0.232957
11:17:56.024	0.221134
11:17:56.424	0.213493
11:17:56.724	0.221062
11:17:57.023	0.220851
11:17:57.424	0.232440
11:17:57.724	0.232278
11:17:58.024	0.207074
11:17:58.424	0.255484
11:17:58.723	0.254260
11:17:59.023	0.218945
11:17:59.423	0.232958
11:17:59.724	0.230689
11:18:00.024	0.252592
11:18:00.424	0.260671
11:18:00.724	0.253314
11:18:01.123	0.255518
11:18:01.424	0.267943
11:18:01.823	0.252179
11:18:02.123	0.277869
11:18:02.423	0.260695
11:18:02.824	0.270430
11:18:03.124	0.264098
11:18:03.423	0.287576
11:18:03.824	0.316234
11:18:04.123	0.327167
11:18:04.424	0.327697
11:18:04.824	0.313387
11:18:05.123	0.327225
11:18:05.524	0.326324
11:18:05.824	0.334366
11:18:06.124	0.371986
11:18:06.523	0.366005
11:18:06.824	0.347324
11:18:07.224	0.368591
11:18:07.524	0.351793
11:18:07.824	0.330950
11:18:08.224	0.358350
11:18:08.523	0.358490
11:18:08.924	0.357246
11:18:09.223	0.365021
11:18:09.623	0.394245
11:18:09.924	0.376436
11:18:10.224	0.383915
11:18:10.624	0.375065
11:18:10.923	0.369346
11:18:11.224	0.377622
11:18:11.624	0.371690
11:18:11.924	0.382572
11:18:12.224	0.377359
11:18:12.624	0.376903
11:18:12.924	0.366779
11:18:13.324	0.391591
11:18:13.624	0.396485
11:18:14.024	0.394730
11:18:14.323	0.388809
11:18:14.723	0.382658
11:18:15.024	0.375538
11:18:15.324	0.380817
11:18:15.724	0.391965
11:18:16.023	0.380033
11:18:16.424	0.361783
11:18:16.724	0.371518
11:18:17.124	0.337939
11:18:17.424	0.347634
11:18:17.824	0.342901
11:18:18.123	0.332087
11:18:18.524	0.314659
11:18:18.824	0.316056
11:18:19.124	0.300707
11:18:19.524	0.300002
11:18:19.823	0.283552
11:18:20.224	0.278126
11:18:20.524	0.253697
11:18:20.924	0.284108
11:18:21.223	0.290222
11:18:21.624	0.279941
11:18:21.924	0.258905
11:18:22.324	0.245058
11:18:22.623	0.253299
11:18:23.023	0.275603
11:18:23.324	0.243007
11:18:23.724	0.242674
11:18:24.024	0.244287
11:18:24.424	0.217832
11:18:24.723	0.237161
11:18:25.124	0.225477
11:18:25.424	0.224775
11:18:25.724	0.242219
11:18:26.123	0.231252
11:18:26.424	0.247699
11:18:26.824	0.251315
11:18:27.123	0.246060
11:18:27.524	0.215643
11:18:27.824	0.208492
11:18:28.224	0.208060
11:18:28.523	0.202977
11:18:28.924	0.208245
11:18:29.224	0.209431
11:18:29.523	0.212108
11:18:29.923	0.197532
11:18:30.224	0.196138
11:18:30.624	0.206863
11:18:30.924	0.205702
11:18:31.224	0.203227
11:18:31.624	0.187649
11:18:31.924	0.191511
11:18:32.324	0.203039
11:18:32.623	0.175784
11:18:33.023	0.172438
11:18:33.324	0.178763
11:18:33.624	0.197034
11:18:34.024	0.199336
11:18:34.324	0.198862
11:18:34.623	0.195293
11:18:35.023	0.183598
11:18:35.324	0.184949
11:18:35.723	0.168064
11:18:36.023	0.169691
11:18:36.323	0.188111
11:18:36.723	0.185910
11:18:37.024	0.184588
11:18:37.424	0.172287
11:18:37.823	0.171093
11:18:38.124	0.160785
11:18:38.423	0.183670
11:18:38.823	0.182583
11:18:39.124	0.180933
11:18:39.424	0.178355
11:18:39.824	0.173054
11:18:40.124	0.150490
11:18:40.423	0.158239
11:18:40.823	0.183632
11:18:41.124	0.202113
11:18:41.524	0.172517
11:18:41.824	0.183425
11:18:42.223	0.191076
11:18:42.524	0.194647
11:18:42.923	0.182963
11:18:43.224	0.170648
11:18:43.524	0.183480
11:18:43.924	0.189617
11:18:44.223	0.189827
11:18:44.623	0.186324
11:18:44.924	0.172738
11:18:45.324	0.162517
11:18:45.624	0.157036
11:18:46.024	0.179092
11:18:46.323	0.182881
11:18:46.624	0.203576
11:18:47.023	0.187746
11:18:47.324	0.179944
11:18:47.625	0.185340
11:18:48.024	0.175507
11:18:48.324	0.160864
11:18:48.623	0.173347
11:18:49.024	0.186431
11:18:49.324	0.174142
11:18:49.723	0.178144
11:18:50.024	0.169438
11:18:50.324	0.194361
11:18:50.723	0.179025
11:18:51.023	0.171343
11:18:51.423	0.173857
11:18:51.724	0.193127
11:18:52.024	0.197600
11:18:52.423	0.197041
11:18:52.723	0.188336
11:18:53.123	0.193628
11:18:53.424	0.204330
11:18:53.724	0.194028
11:18:54.123	0.175588
11:18:54.424	0.187082
11:18:54.824	0.178788
11:18:55.124	0.177791
11:18:55.423	0.179238
11:18:55.824	0.203464
11:18:56.124	0.194367
11:18:56.424	0.179595
11:18:56.824	0.179334
11:18:57.123	0.183933
11:18:57.424	0.187619
11:18:57.823	0.176748
11:18:58.124	0.180630
11:18:58.424	0.169147
11:18:58.824	0.159714
11:18:59.124	0.156427
11:18:59.524	0.162109
11:18:59.823	0.161439
11:19:00.224	0.146500
11:19:00.524	0.160010
11:19:00.923	0.187367
11:19:01.224	0.170805
11:19:01.524	0.168444
11:19:01.924	0.177042
11:19:02.224	0.164489
11:19:02.524	0.163973
11:19:02.924	0.166333
11:19:03.224	0.175430
11:19:03.524	0.190276
11:19:03.924	0.195768
11:19:04.223	0.173245
11:19:04.524	0.167668
11:19:04.924	0.165786
11:19:05.224	0.167990
11:19:05.624	0.175907
11:19:05.924	0.176443
11:19:06.325	0.162595
11:19:06.624	0.157178
11:19:07.024	0.176728
11:19:07.324	0.160425
11:19:07.624	0.150184
11:19:08.023	0.165141
11:19:08.323	0.173257
11:19:08.623	0.179891
11:19:09.024	0.173368
11:19:09.324	0.163090
11:19:09.724	0.158594
11:19:10.024	0.153842
11:19:10.423	0.158429
11:19:10.725	0.168722
11:19:11.124	0.163812
11:19:11.424	0.153939
11:19:11.724	0.156487
11:19:12.123	0.171321
11:19:12.424	0.165622
11:19:12.723	0.169122
11:19:13.124	0.176845
11:19:13.423	0.170204
11:19:13.823	0.165511
11:19:14.123	0.150300
11:19:14.524	0.160148
11:19:14.824	0.162711
11:19:15.124	0.170335
11:19:15.524	0.188888
11:19:15.824	0.242521
11:19:16.224	0.283285
11:19:16.524	0.264463
11:19:16.824	0.217614
11:19:17.224	0.184881
11:19:17.524	0.172414
11:19:17.924	0.181576
11:19:18.224	0.185197
11:19:18.524	0.180278
11:19:18.924	0.173823
11:19:19.224	0.160826
11:19:19.623	0.166897
11:19:19.923	0.166296
11:19:20.324	0.167789
11:19:20.624	0.173398
11:19:21.024	0.162233
11:19:21.324	0.181594
11:19:21.624	0.184215
11:19:22.023	0.187326
11:19:22.324	0.170104
11:19:22.624	0.161370
11:19:23.024	0.163390
11:19:23.324	0.171190
11:19:23.724	0.163537
11:19:24.024	0.159545
11:19:24.424	0.162918
11:19:24.724	0.162066
11:19:25.123	0.172969
11:19:25.424	0.170211
11:19:25.724	0.178221
11:19:26.124	0.185023
11:19:26.423	0.188793
11:19:26.724	0.172104
11:19:27.124	0.169284
11:19:27.424	0.174314
11:19:27.824	0.168110
11:19:28.123	0.168048
11:19:28.525	0.184360
11:19:28.824	0.186355
11:19:29.124	0.194029
11:19:29.523	0.176490
11:19:29.824	0.179175
11:19:30.224	0.185203
11:19:30.523	0.180951
11:19:30.824	0.179923
11:19:31.224	0.183007
11:19:31.523	0.196078
11:19:31.924	0.197221
11:19:32.224	0.202048
11:19:32.624	0.194504
11:19:32.924	0.192334
11:19:33.324	0.189361
11:19:33.624	0.187220
11:19:34.024	0.181995
11:19:34.324	0.178190
11:19:34.724	0.191029
11:19:35.024	0.173772
11:19:35.424	0.174191
11:19:35.724	0.189944
11:19:36.024	0.199349
11:19:36.424	0.183528
11:19:36.724	0.183806
11:19:37.124	0.202447
11:19:37.424	0.201283
11:19:37.723	0.179787
11:19:38.124	0.198192
11:19:38.424	0.194377
11:19:38.724	0.187406
11:19:39.123	0.196058
11:19:39.423	0.198220
11:19:39.724	0.191318
11:19:40.124	0.212255
11:19:40.424	0.216941
11:19:40.824	0.209913
11:19:41.124	0.214279
11:19:41.524	0.215653
11:19:41.824	0.206900
11:19:42.123	0.187946
11:19:42.523	0.198522
11:19:42.823	0.206990
11:19:43.224	0.219645
11:19:43.524	0.204408
11:19:43.823	0.191260
11:19:44.224	0.217293
11:19:44.524	0.219843
11:19:44.824	0.224124
11:19:45.224	0.214851
11:19:45.523	0.210429
11:19:45.824	0.214126
11:19:46.224	0.213057
11:19:46.524	0.203145
11:19:46.824	0.204691
11:19:47.223	0.219277
11:19:47.524	0.221658
11:19:47.924	0.229190
11:19:48.223	0.198940
11:19:48.624	0.221272
11:19:48.924	0.219681
11:19:49.323	0.221758
11:19:49.624	0.217691
11:19:49.923	0.222140
11:19:50.324	0.222060
11:19:50.624	0.218864
11:19:50.924	0.219766
11:19:51.323	0.212074
11:19:51.623	0.214206
11:19:51.924	0.199676
11:19:52.324	0.206978
11:19:52.624	0.205549
11:19:53.024	0.196237
11:19:53.324	0.186280
11:19:53.724	0.192714
11:19:54.024	0.185446
11:19:54.424	0.191821
11:19:54.724	0.195212
11:19:55.124	0.180186
11:19:55.424	0.174863
11:19:55.724	0.167666
11:19:56.124	0.191926
11:19:56.424	0.194576
11:19:56.824	0.191322
11:19:57.124	0.185145
11:19:57.425	0.187397
11:19:57.823	0.191629
11:19:58.124	0.186189
11:19:58.524	0.170814
11:19:58.824	0.176514
11:19:59.224	0.175770
11:19:59.523	0.168846
11:19:59.824	0.173232
11:20:00.224	0.159240
11:20:00.524	0.168873
11:20:00.923	0.166437
11:20:01.224	0.166646
11:20:01.624	0.169672
11:20:01.924	0.182908
11:20:02.324	0.202118
11:20:02.624	0.179247
11:20:03.024	0.155942
11:20:03.323	0.161012
11:20:03.724	0.170085
11:20:04.024	0.159187
11:20:04.424	0.155019
11:20:04.724	0.154177
11:20:05.024	0.161610
11:20:05.424	0.176225
11:20:05.724	0.168799
11:20:06.024	0.171992
11:20:06.425	0.162196
11:20:06.723	0.157743
11:20:07.124	0.147118
11:20:07.424	0.154463
11:20:07.824	0.165136
11:20:08.124	0.159576
11:20:08.424	0.159410
11:20:08.824	0.152358
11:20:09.124	0.181138
11:20:09.524	0.182420
11:20:09.824	0.174904
11:20:10.224	0.175896
11:20:10.525	0.184422
11:20:10.924	0.185004
11:20:11.224	0.172160
11:20:11.624	0.153513
11:20:11.924	0.158261
11:20:12.324	0.162475
11:20:12.623	0.167527
11:20:13.024	0.163774
11:20:13.324	0.156705
11:20:13.724	0.153995
11:20:14.024	0.144769
11:20:14.424	0.133474
11:20:14.724	0.153582
11:20:15.024	0.149163
11:20:15.424	0.161784
11:20:15.724	0.165918
11:20:16.124	0.154510
11:20:16.424	0.133731
11:20:16.824	0.136952
11:20:17.124	0.146924
11:20:17.524	0.153405
11:20:17.824	0.143514
11:20:18.124	0.154070
11:20:18.524	0.145581
11:20:18.824	0.163972
11:20:19.124	0.166402
11:20:19.524	0.153530
11:20:19.824	0.166739
11:20:20.124	0.165131
11:20:20.524	0.158233
11:20:20.824	0.153226
11:20:21.125	0.168315
11:20:21.524	0.165407
11:20:21.824	0.149232
11:20:22.124	0.135851
11:20:22.524	0.139672
11:20:22.824	0.157011
11:20:23.224	0.166654
11:20:23.525	0.142856
11:20:23.924	0.155513
11:20:24.224	0.151924
11:20:24.625	0.137415
11:20:24.924	0.143184
11:20:25.224	0.132834
11:20:25.624	0.151466
11:20:25.924	0.165264
11:20:26.224	0.155763
11:20:26.624	0.141919
11:20:26.924	0.144249
11:20:27.224	0.146419
11:20:27.624	0.149661
11:20:28.024	0.149488
11:20:28.324	0.148156
11:20:28.724	0.134213
11:20:29.025	0.147049
11:20:29.325	0.146114
11:20:29.724	0.168150
11:20:30.024	0.143037
11:20:30.425	0.163023
11:20:30.725	0.167505
11:20:31.125	0.156623
11:20:31.424	0.141608
11:20:31.824	0.156264
11:20:32.124	0.158069
11:20:32.524	0.139586
11:20:32.824	0.163101
11:20:33.124	0.156449
11:20:33.525	0.148052
11:20:33.825	0.145493
11:20:34.224	0.146594
11:20:34.525	0.140641
11:20:34.824	0.147643
11:20:35.224	0.153728
11:20:35.625	0.150015
11:20:35.924	0.153344
11:20:36.224	0.139216
11:20:36.624	0.144843
11:20:36.924	0.147246
11:20:37.324	0.142356
11:20:37.624	0.151031
11:20:38.024	0.147698
11:20:38.325	0.146641
11:20:38.724	0.146389
11:20:39.024	0.155183
11:20:39.325	0.148770
11:20:39.724	0.145621
11:20:40.024	0.135782
11:20:40.325	0.127386
11:20:40.724	0.127296
11:20:41.025	0.142646
11:20:41.324	0.158788
11:20:41.725	0.178037
11:20:42.025	0.181766
11:20:42.324	0.155298
11:20:42.725	0.158726
11:20:43.025	0.145862
11:20:43.324	0.152465
11:20:43.724	0.139438
11:20:44.025	0.138814
11:20:44.425	0.145658
11:20:44.725	0.140896
11:20:45.025	0.138953
11:20:45.424	0.131110
11:20:45.724	0.157467
11:20:46.025	0.130021
11:20:46.425	0.140283
11:20:46.725	0.142705
11:20:47.025	0.150087
11:20:47.425	0.146307
11:20:47.725	0.142944
11:20:48.024	0.143670
11:20:48.424	0.134081
11:20:48.724	0.138467
11:20:49.124	0.146982
11:20:49.425	0.154179
11:20:49.824	0.146615
11:20:50.124	0.146511
11:20:50.424	0.155245
11:20:50.824	0.139809
11:20:51.125	0.140343
11:20:51.524	0.141006
11:20:51.825	0.157089
11:20:52.124	0.150081
11:20:52.525	0.139923
11:20:52.825	0.136390
11:20:53.124	0.154965
11:20:53.525	0.141273
11:20:53.825	0.149185
11:20:54.125	0.147237
11:20:54.525	0.142683
11:20:54.826	0.138813
11:20:55.125	0.143026
11:20:55.525	0.142406
11:20:55.824	0.137861
11:20:56.125	0.144195
11:20:56.525	0.158187
11:20:56.824	0.154678
11:20:57.125	0.142366
11:20:57.524	0.138613
11:20:57.825	0.142739
11:20:58.224	0.134678
11:20:58.525	0.133214
11:20:58.925	0.134490
11:20:59.225	0.136751
11:20:59.625	0.151875
11:20:59.925	0.131883
11:21:00.224	0.128361
11:21:00.625	0.131773
11:21:00.924	0.141459
11:21:01.225	0.135109
11:21:01.625	0.129921
11:21:01.924	0.131526
11:21:02.224	0.132772
11:21:02.624	0.121387
11:21:02.924	0.131396
11:21:03.224	0.147623
11:21:03.625	0.137382
11:21:03.925	0.140989
11:21:04.225	0.139931
11:21:04.625	0.140387
11:21:04.924	0.148694
11:21:05.325	0.146489
11:21:05.625	0.135878
11:21:06.024	0.127374
11:21:06.324	0.135779
11:21:06.724	0.150227
11:21:07.025	0.139608
11:21:07.325	0.140497
11:21:07.725	0.155969
11:21:08.025	0.132631
11:21:08.325	0.159668
11:21:08.725	0.144370
11:21:09.025	0.138553
11:21:09.324	0.139263
11:21:09.725	0.132574
11:21:10.024	0.136303
11:21:10.324	0.143760
11:21:10.725	0.138342
11:21:11.025	0.150746
11:21:11.324	0.137785
11:21:11.725	0.148631
11:21:12.025	0.140132
11:21:12.325	0.133837
11:21:12.725	0.122256
11:21:13.024	0.135178
11:21:13.425	0.142857
11:21:13.725	0.141566
11:21:14.024	0.142337
11:21:14.424	0.140416
11:21:14.826	0.134337
11:21:15.124	0.119905
11:21:15.425	0.129806
11:21:15.825	0.136409
11:21:16.124	0.145676
11:21:16.425	0.138682
11:21:16.825	0.148158
11:21:17.125	0.151903
11:21:17.524	0.144918
11:21:17.825	0.148283
11:21:18.124	0.140897
11:21:18.524	0.134268
11:21:18.824	0.139230
11:21:19.225	0.148345
11:21:19.524	0.144107
11:21:19.825	0.142878
11:21:20.225	0.138839
11:21:20.524	0.128758
11:21:20.925	0.137778
11:21:21.225	0.117857
11:21:21.525	0.110831
11:21:21.925	0.124004
11:21:22.225	0.138869
11:21:22.625	0.135633
11:21:22.925	0.131168
11:21:23.225	0.143042
11:21:23.624	0.134165
11:21:23.924	0.137782
11:21:24.224	0.130074
11:21:24.624	0.117640
11:21:24.925	0.121369
11:21:25.225	0.135180
11:21:25.625	0.140928
11:21:25.925	0.130150
11:21:26.225	0.125749
11:21:26.624	0.135559
11:21:26.925	0.138661
11:21:27.325	0.132213
11:21:27.625	0.125489
11:21:28.025	0.129647
11:21:28.325	0.119679
11:21:28.624	0.120459
11:21:29.024	0.130598
11:21:29.325	0.143013
11:21:29.725	0.142668
11:21:30.024	0.141819
11:21:30.325	0.133961
11:21:30.725	0.132228
11:21:31.024	0.134854
11:21:31.325	0.132404
11:21:31.725	0.142095
11:21:32.025	0.136327
11:21:32.325	0.145637
11:21:32.724	0.136311
11:21:33.025	0.136971
11:21:33.325	0.138027
11:21:33.724	0.128891
11:21:34.025	0.123663
11:21:34.325	0.129040
11:21:34.724	0.123744
11:21:35.024	0.121151
11:21:35.324	0.120843
11:21:35.725	0.128702
11:21:36.025	0.127375
11:21:36.324	0.132681
11:21:36.725	0.123322
11:21:37.025	0.123884
11:21:37.325	0.129281
11:21:37.725	0.140370
11:21:38.025	0.134120
11:21:38.425	0.129393
11:21:38.725	0.124595
11:21:39.025	0.134717
11:21:39.424	0.127647
11:21:39.725	0.120588
11:21:40.125	0.126484
11:21:40.425	0.131312
11:21:40.825	0.122245
11:21:41.125	0.140590
11:21:41.424	0.139717
11:21:41.825	0.133557
11:21:42.125	0.129858
11:21:42.425	0.134217
11:21:42.826	0.124416
11:21:43.125	0.136151
11:21:43.524	0.133449
11:21:43.825	0.132769
11:21:44.225	0.145217
11:21:44.524	0.141300
11:21:44.925	0.135752
11:21:45.224	0.144474
11:21:45.624	0.141608
11:21:45.925	0.146562
11:21:46.325	0.123775
11:21:46.625	0.130469
11:21:47.025	0.130234
11:21:47.325	0.131106
11:21:47.625	0.134166
11:21:48.025	0.153064
11:21:48.324	0.168940
11:21:48.625	0.147142
11:21:49.025	0.127497
11:21:49.325	0.133171
11:21:49.625	0.138419
11:21:50.025	0.142795
11:21:50.324	0.139358
11:21:50.625	0.135435
11:21:51.025	0.138118
11:21:51.324	0.128346
11:21:51.725	0.144567
11:21:52.024	0.126130
11:21:52.324	0.118842
11:21:52.725	0.144940
11:21:53.025	0.127511
11:21:53.324	0.132903
11:21:53.725	0.139254
11:21:54.124	0.123032
11:21:54.425	0.132275
11:21:54.724	0.135506
11:21:55.125	0.124527
11:21:55.424	0.138668
11:21:55.725	0.127906
11:21:56.125	0.135777
11:21:56.425	0.143059
11:21:56.724	0.139357
11:21:57.125	0.125882
11:21:57.425	0.129786
11:21:57.825	0.136822
11:21:58.124	0.133030
11:21:58.424	0.126053
11:21:58.825	0.119652
11:21:59.124	0.134052
11:21:59.525	0.127129
11:21:59.824	0.129346
11:22:00.125	0.108867
11:22:00.525	0.122186
11:22:00.824	0.130848
11:22:01.225	0.139238
11:22:01.524	0.127468
11:22:01.925	0.107232
11:22:02.225	0.112753
11:22:02.525	0.125966
11:22:02.925	0.117675
11:22:03.225	0.129859
11:22:03.525	0.141564
11:22:03.924	0.137259
11:22:04.224	0.120328
11:22:04.525	0.116716
11:22:04.925	0.120230
11:22:05.225	0.118390
11:22:05.625	0.122954
11:22:05.924	0.121287
11:22:06.224	0.137225
11:22:06.624	0.138195
11:22:06.924	0.125664
11:22:07.325	0.130499
11:22:07.625	0.137380
11:22:08.025	0.135015
11:22:08.325	0.136581
11:22:08.625	0.134402
11:22:09.025	0.141670
11:22:09.325	0.140961
11:22:09.625	0.140149
11:22:10.025	0.125705
11:22:10.324	0.129757
11:22:10.625	0.146070
11:22:11.024	0.134703
11:22:11.325	0.142228
11:22:11.625	0.129640
11:22:12.025	0.121757
11:22:12.325	0.126286
11:22:12.625	0.134855
11:22:13.025	0.143983
11:22:13.325	0.136804
11:22:13.725	0.139996
11:22:14.025	0.135893
11:22:14.325	0.128608
11:22:14.725	0.136061
11:22:15.025	0.147722
11:22:15.425	0.155028
11:22:15.725	0.137100
11:22:16.126	0.137412
11:22:16.425	0.125637
11:22:16.725	0.134768
11:22:17.124	0.142828
11:22:17.425	0.149393
11:22:17.724	0.133518
11:22:18.124	0.127523
11:22:18.426	0.143336
11:22:18.825	0.140183
11:22:19.124	0.130432
11:22:19.425	0.127647
11:22:19.825	0.150285
11:22:20.124	0.140647
11:22:20.525	0.124746
11:22:20.825	0.143723
11:22:21.225	0.144423
11:22:21.525	0.139562
11:22:21.825	0.137933
11:22:22.225	0.139798
11:22:22.524	0.136656
11:22:22.825	0.119859
11:22:23.225	0.141171
11:22:23.525	0.143544
11:22:23.825	0.135367
11:22:24.224	0.135971
11:22:24.524	0.131812
11:22:24.824	0.130878
11:22:25.225	0.131001
11:22:25.525	0.136843
11:22:25.925	0.135610
11:22:26.224	0.124219
11:22:26.624	0.123249
11:22:26.925	0.129913
11:22:27.324	0.134391
11:22:27.625	0.134652
11:22:28.025	0.140508
11:22:28.425	0.145726
11:22:28.725	0.129529
11:22:29.125	0.138476
11:22:29.425	0.133197
11:22:29.724	0.126079
11:22:30.125	0.136805
11:22:30.424	0.130192
11:22:30.825	0.127494
11:22:31.125	0.136273
11:22:31.425	0.133579
11:22:31.825	0.130101
11:22:32.125	0.123510
11:22:32.425	0.130536
11:22:32.825	0.118499
11:22:33.125	0.106981
11:22:33.525	0.131118
11:22:33.825	0.118781
11:22:34.225	0.115696
11:22:34.525	0.123705
11:22:34.925	0.102317
11:22:35.225	0.122997
11:22:35.625	0.121346
11:22:35.925	0.122536
11:22:36.325	0.120645
11:22:36.625	0.134089
11:22:36.925	0.135921
11:22:37.325	0.127518
11:22:37.625	0.131123
11:22:37.925	0.139104
11:22:38.325	0.136539
11:22:38.625	0.120620
11:22:38.925	0.127847
11:22:39.324	0.128936
11:22:39.625	0.145636
11:22:40.025	0.130415
11:22:40.325	0.128808
11:22:40.725	0.116666
11:22:41.024	0.121257
11:22:41.425	0.136033
11:22:41.725	0.125221
11:22:42.124	0.115288
11:22:42.424	0.117455
11:22:42.725	0.120891
11:22:43.125	0.129215
11:22:43.425	0.123075
11:22:43.825	0.128408
11:22:44.125	0.117761
11:22:44.525	0.125407
11:22:44.825	0.121361
11:22:45.124	0.114510
11:22:45.525	0.130173
11:22:45.825	0.127828
11:22:46.125	0.118651
11:22:46.525	0.115209
11:22:46.824	0.117967
11:22:47.125	0.121490
11:22:47.525	0.112983
11:22:47.825	0.116414
11:22:48.225	0.135021
11:22:48.525	0.132257
11:22:48.925	0.117275
11:22:49.225	0.116053
11:22:49.625	0.128365
11:22:49.925	0.120555
11:22:50.325	0.115970
11:22:50.625	0.119329
11:22:51.025	0.133956
11:22:51.325	0.137270
11:22:51.725	0.134952
11:22:52.024	0.129966
11:22:52.324	0.128831
11:22:52.725	0.119180
11:22:53.024	0.117241
11:22:53.324	0.117535
11:22:53.725	0.114103
11:22:54.025	0.095322
11:22:54.425	0.114879
11:22:54.725	0.123066
11:22:55.124	0.115266
11:22:55.424	0.119522
11:22:55.825	0.100003
11:22:56.125	0.104845
11:22:56.525	0.111804
11:22:56.825	0.139765
11:22:57.125	0.137938
11:22:57.525	0.129071
11:22:57.825	0.126149
11:22:58.125	0.119548
11:22:58.525	0.120091
11:22:58.825	0.109721
11:22:59.125	0.123819
11:22:59.524	0.125130
11:22:59.825	0.114323
11:23:00.125	0.107080
11:23:00.525	0.117202
11:23:00.824	0.122725
11:23:01.124	0.126080
11:23:01.525	0.113597
11:23:01.825	0.112634
11:23:02.124	0.121060
11:23:02.525	0.115115
11:23:02.825	0.116794
11:23:03.225	0.131702
11:23:03.524	0.111977
11:23:03.825	0.121080
11:23:04.225	0.121549
11:23:04.525	0.113574
11:23:04.925	0.108613
11:23:05.225	0.113512
11:23:05.625	0.119425
11:23:05.926	0.125085
11:23:06.225	0.117663
11:23:06.625	0.106922
11:23:06.925	0.108429
11:23:07.225	0.113047
11:23:07.625	0.124561
11:23:07.925	0.125561
11:23:08.226	0.103361
11:23:08.625	0.024499
11:23:08.925	0.021217
11:23:09.325	0.033908
11:23:09.625	0.022776
11:23:10.025	0.024407
11:23:10.325	0.024475
11:23:10.625	0.021239
11:23:11.025	0.021720
11:23:11.325	0.022947
11:23:11.724	0.022285
11:23:12.025	0.017759
11:23:12.425	0.016303
11:23:12.725	0.016783
11:23:13.025	0.015614
11:23:13.424	0.013272
11:23:13.725	0.010200
11:23:14.025	0.009258
11:23:14.425	0.017043
11:23:14.725	0.016106
11:23:15.026	0.013587
11:23:15.424	0.012517
11:23:15.725	0.016836
11:23:16.125	0.024069
11:23:16.425	0.020170
11:23:16.825	0.018910
11:23:17.125	0.016617
11:23:17.425	0.015459
11:23:17.825	0.018579
11:23:18.125	0.019403
11:23:18.525	0.017414
11:23:18.825	0.018576
11:23:19.126	0.015019
11:23:19.525	0.013169
11:23:19.825	0.014724
11:23:20.125	0.016263
11:23:20.525	0.013505
11:23:20.825	0.013333
11:23:21.125	0.016665
11:23:21.525	0.012512
11:23:21.825	0.014543
11:23:22.225	0.014817
11:23:22.525	0.017213
11:23:22.825	0.021328
11:23:23.225	0.013947
11:23:23.525	0.014137
11:23:23.925	0.013702
11:23:24.225	0.016889
11:23:24.525	0.017398
11:23:24.925	0.018866
11:23:25.225	0.014772
11:23:25.625	0.011503
11:23:25.925	0.011291
11:23:26.225	0.020218
11:23:26.625	0.012185
11:23:26.925	0.012662
11:23:27.225	0.015917
11:23:27.625	0.013227
11:23:27.925	0.016864
11:23:28.225	0.020584
11:23:28.625	0.016836
11:23:28.925	0.017041
11:23:29.326	0.018170
11:23:29.625	0.023071
11:23:30.025	0.021079
11:23:30.325	0.019109
11:23:30.625	0.020253
11:23:31.026	0.020055
11:23:31.326	0.031089
11:23:31.726	0.053691
11:23:32.025	0.050759
11:23:32.325	0.021070
11:23:32.725	0.020116
11:23:33.025	0.022118
11:23:33.426	0.030558
11:23:33.725	0.019821
11:23:34.025	0.023153
11:23:34.426	0.025868
11:23:34.725	0.022417
11:23:35.025	0.027518
11:23:35.426	0.019401
11:23:35.725	0.020977
11:23:36.126	0.023275
11:23:36.425	0.023566
11:23:36.825	0.026741
11:23:37.126	0.030089
11:23:37.525	0.025751
11:23:37.825	0.027839
11:23:38.225	0.030234
11:23:38.525	0.031729
11:23:38.925	0.030451
11:23:39.225	0.035050
11:23:39.625	0.031678
11:23:39.925	0.029687
11:23:40.225	0.032747
11:23:40.626	0.032498
11:23:40.925	0.029874
11:23:41.225	0.036860
11:23:41.625	0.033821
11:23:41.925	0.033244
11:23:42.226	0.033219
11:23:42.626	0.038540
11:23:42.925	0.022585
11:23:43.325	0.021617
11:23:43.626	0.021383
11:23:43.926	0.025597
11:23:44.325	0.032664
11:23:44.626	0.035342
11:23:45.026	0.027719
11:23:45.326	0.027637
11:23:45.625	0.024398
11:23:46.025	0.026459
11:23:46.325	0.023836
11:23:46.725	0.025750
11:23:47.026	0.028242
11:23:47.325	0.027766
11:23:47.725	0.023398
11:23:48.025	0.026633
11:23:48.326	0.024432
11:23:48.726	0.027751
11:23:49.026	0.025742
11:23:49.325	0.026386
11:23:49.726	0.032539
11:23:50.026	0.033676
11:23:50.325	0.029043
11:23:50.725	0.026807
11:23:51.025	0.037631
11:23:51.426	0.029300
11:23:51.726	0.028131
11:23:52.126	0.032180
11:23:52.425	0.029445
11:23:52.726	0.035989
11:23:53.126	0.046603
11:23:53.425	0.047232
11:23:53.826	0.055716
11:23:54.126	0.050867
11:23:54.425	0.055710
11:23:54.826	0.043806
11:23:55.126	0.052044
11:23:55.426	0.054473
11:23:55.826	0.044736
11:23:56.125	0.039601
11:23:56.426	0.044305
11:23:56.825	0.052625
11:23:57.126	0.053483
11:23:57.525	0.036538
11:23:57.826	0.038231
11:23:58.226	0.035781
11:23:58.526	0.036521
11:23:58.925	0.036279
11:23:59.225	0.038780
11:23:59.526	0.030204
11:23:59.926	0.027653
11:24:00.225	0.029533
11:24:00.626	0.040029
11:24:00.925	0.047111
11:24:01.226	0.044649
11:24:01.626	0.044185
11:24:01.926	0.044808
11:24:02.226	0.057409
11:24:02.626	0.055898
11:24:02.926	0.058916
11:24:03.226	0.056358
11:24:03.626	0.045798
11:24:03.925	0.031380
11:24:04.226	0.030574
11:24:04.625	0.038475
11:24:04.926	0.044686
11:24:05.326	0.043776
11:24:05.625	0.044626
11:24:06.026	0.043021
11:24:06.326	0.048737
11:24:06.625	0.061962
11:24:07.026	0.072133
11:24:07.326	0.069913
11:24:07.726	0.054111
11:24:08.025	0.057693
11:24:08.326	0.057307
11:24:08.726	0.059338
11:24:09.025	0.055630
11:24:09.326	0.059885
11:24:09.726	0.058152
11:24:10.025	0.056267
11:24:10.325	0.064399
11:24:10.726	0.064300
11:24:11.026	0.045881
11:24:11.426	0.043929
11:24:11.726	0.048310
11:24:12.126	0.054356
11:24:12.426	0.047894
11:24:12.826	0.044541
11:24:13.126	0.044988
11:24:13.426	0.046690
11:24:13.826	0.045720
11:24:14.125	0.047697
11:24:14.425	0.050782
11:24:14.826	0.039529
11:24:15.126	0.041355
11:24:15.425	0.047489
11:24:15.826	0.041527
11:24:16.126	0.041861
11:24:16.425	0.040735
11:24:16.826	0.046044
11:24:17.125	0.050981
11:24:17.426	0.064130
11:24:17.826	0.058001
11:24:18.126	0.053251
11:24:18.426	0.055933
11:24:18.826	0.057450
11:24:19.125	0.056286
11:24:19.425	0.058344
11:24:19.825	0.068670
11:24:20.126	0.075956
11:24:20.426	0.078761
11:24:20.826	0.071495
11:24:21.126	0.076037
11:24:21.526	0.064302
11:24:21.826	0.072664
11:24:22.226	0.087071
11:24:22.526	0.092780
11:24:22.926	0.089985
11:24:23.225	0.075310
11:24:23.625	0.083827
11:24:23.925	0.079118
11:24:24.226	0.071249
11:24:24.626	0.083741
11:24:24.926	0.083507
11:24:25.326	0.079143
11:24:25.626	0.073092
11:24:26.026	0.069963
11:24:26.326	0.068211
11:24:26.725	0.072740
11:24:27.026	0.090733
11:24:27.426	0.077043
11:24:27.726	0.076365
11:24:28.025	0.101363
11:24:28.426	0.101275
11:24:28.825	0.090884
11:24:29.126	0.091006
11:24:29.426	0.091656
11:24:29.825	0.087309
11:24:30.125	0.087732
11:24:30.425	0.094832
11:24:30.826	0.106789
11:24:31.126	0.099558
11:24:31.425	0.093891
11:24:31.825	0.093265
11:24:32.126	0.099136
11:24:32.425	0.093423
11:24:32.826	0.089141
11:24:33.126	0.104931
11:24:33.427	0.106899
11:24:33.826	0.102874
11:24:34.126	0.092178
11:24:34.426	0.094630
11:24:34.826	0.088619
11:24:35.125	0.098700
11:24:35.426	0.094712
11:24:35.825	0.092611
11:24:36.126	0.089151
11:24:36.425	0.111359
11:24:36.826	0.107392
11:24:37.126	0.099623
11:24:37.426	0.103728
11:24:37.826	0.105966
11:24:38.126	0.108715
11:24:38.425	0.084451
11:24:38.826	0.101266
11:24:39.125	0.093748
11:24:39.526	0.090426
11:24:39.827	0.088915
11:24:40.226	0.095859
11:24:40.526	0.090948
11:24:40.926	0.087430
11:24:41.226	0.111273
11:24:41.526	0.101597
11:24:41.926	0.099826
11:24:42.226	0.098470
11:24:42.625	0.108309
11:24:42.926	0.105005
11:24:43.226	0.105571
11:24:43.626	0.112813
11:24:43.926	0.101596
11:24:44.326	0.107178
11:24:44.626	0.111051
11:24:45.026	0.100690
11:24:45.326	0.090615
11:24:45.626	0.090639
11:24:46.026	0.118659
11:24:46.326	0.109098
11:24:46.726	0.102678
11:24:47.025	0.094102
11:24:47.426	0.107929
11:24:47.726	0.095879
11:24:48.127	0.109393
11:24:48.426	0.104789
11:24:48.726	0.087576
11:24:49.126	0.099699
11:24:49.426	0.089052
11:24:49.825	0.078426
11:24:50.126	0.090792
11:24:50.426	0.099994
11:24:50.826	0.106635
11:24:51.126	0.100684
11:24:51.525	0.099763
11:24:51.826	0.091406
11:24:52.225	0.112072
11:24:52.525	0.101730
11:24:52.826	0.116254
11:24:53.226	0.108345
11:24:53.525	0.099469
11:24:53.827	0.119236
11:24:54.226	0.100375
11:24:54.526	0.100963
11:24:54.926	0.100061
11:24:55.226	0.094989
11:24:55.525	0.094790
11:24:55.926	0.099306
11:24:56.226	0.113135
11:24:56.525	0.127443
11:24:56.925	0.122280
11:24:57.225	0.104297
11:24:57.525	0.094744
11:24:57.926	0.114700
11:24:58.226	0.107965
11:24:58.526	0.109120
11:24:58.926	0.108361
11:24:59.225	0.118075
11:24:59.526	0.121201
11:24:59.926	0.130959
11:25:00.225	0.179627
11:25:00.626	0.226990
11:25:00.926	0.211942
11:25:01.326	0.201520
11:25:01.626	0.188221
11:25:02.026	0.156339
11:25:02.325	0.177891
11:25:02.625	0.176801
11:25:03.025	0.163016
11:25:03.326	0.155204
11:25:03.726	0.178736
11:25:04.026	0.169222
11:25:04.326	0.133891
11:25:04.726	0.128882
11:25:05.026	0.126762
11:25:05.326	0.126560
11:25:05.726	0.116370
11:25:06.025	0.111963
11:25:06.426	0.109894
11:25:06.726	0.121001
11:25:07.126	0.118659
11:25:07.426	0.112455
11:25:07.727	0.110715
11:25:08.125	0.108872
11:25:08.425	0.123342
11:25:08.725	0.124313
11:25:09.126	0.126931
11:25:09.426	0.130976
11:25:09.826	0.125558
11:25:10.125	0.129661
11:25:10.526	0.134684
11:25:10.826	0.121540
11:25:11.225	0.127687
11:25:11.526	0.127610
11:25:11.826	0.116596
11:25:12.226	0.103919
11:25:12.526	0.107958
11:25:12.826	0.119260
11:25:13.225	0.115720
11:25:13.526	0.119207
11:25:13.826	0.115026
11:25:14.226	0.117487
11:25:14.526	0.110605
11:25:14.826	0.109223
11:25:15.227	0.105953
11:25:15.527	0.107383
11:25:15.926	0.104463
11:25:16.226	0.087012
11:25:16.626	0.091155
11:25:16.926	0.101446
11:25:17.326	0.118066
11:25:17.626	0.110231
11:25:18.025	0.097224
11:25:18.326	0.088461
11:25:18.725	0.119500
11:25:19.026	0.107214
11:25:19.425	0.081456
11:25:19.726	0.082226
11:25:20.026	0.088043
11:25:20.426	0.091400
11:25:20.726	0.102388
11:25:21.026	0.103129
11:25:21.426	0.087912
11:25:21.726	0.087094
11:25:22.026	0.088734
11:25:22.426	0.092810
11:25:22.726	0.088304
11:25:23.125	0.090090
11:25:23.426	0.082190
11:25:23.726	0.094779
11:25:24.126	0.106084
11:25:24.425	0.096147
11:25:24.826	0.098609
11:25:25.126	0.111526
11:25:25.526	0.100052
11:25:25.825	0.087770
11:25:26.226	0.079918
11:25:26.525	0.089545
11:25:26.825	0.096212
11:25:27.226	0.093082
11:25:27.526	0.102051
11:25:27.826	0.092783
11:25:28.226	0.090407
11:25:28.526	0.094527
11:25:28.926	0.103159
11:25:29.226	0.104889
11:25:29.626	0.095310
11:25:29.926	0.085473
11:25:30.325	0.091313
11:25:30.626	0.104839
11:25:30.926	0.096425
11:25:31.326	0.101241
11:25:31.625	0.099640
11:25:32.026	0.085987
11:25:32.326	0.084441
11:25:32.626	0.083551
11:25:33.026	0.094699
11:25:33.326	0.082513
11:25:33.726	0.088867
11:25:34.026	0.089612
11:25:34.326	0.075354
11:25:34.726	0.091060
11:25:35.026	0.094231
11:25:35.326	0.095689
11:25:35.726	0.095757
11:25:36.026	0.095402
11:25:36.426	0.086254
11:25:36.726	0.102521
11:25:37.126	0.083966
11:25:37.426	0.083786
11:25:37.826	0.088753
11:25:38.126	0.087009
11:25:38.526	0.096561
11:25:38.826	0.082176
11:25:39.226	0.084986
11:25:39.525	0.083990
11:25:39.926	0.085740
11:25:40.226	0.093679
11:25:40.625	0.090692
11:25:40.926	0.100492
11:25:41.226	0.091056
11:25:41.626	0.088046
11:25:41.926	0.088581
11:25:42.326	0.085034
11:25:42.626	0.089684
11:25:43.025	0.100527
11:25:43.326	0.103455
11:25:43.726	0.107381
11:25:44.025	0.098326
11:25:44.426	0.096298
11:25:44.726	0.114826
11:25:45.026	0.147664
11:25:45.425	0.145357
11:25:45.726	0.140017
11:25:46.026	0.117433
11:25:46.426	0.114392
11:25:46.725	0.105118
11:25:47.126	0.105688
11:25:47.426	0.093885
11:25:47.826	0.093403
11:25:48.126	0.098766
11:25:48.426	0.087437
11:25:48.826	0.081892
11:25:49.126	0.085755
11:25:49.526	0.106335
11:25:49.826	0.090835
11:25:50.225	0.073217
11:25:50.526	0.087695
11:25:50.926	0.087310
11:25:51.226	0.077465
11:25:51.626	0.084461
11:25:51.926	0.096342
11:25:52.226	0.080677
11:25:52.626	0.090368
11:25:52.926	0.091817
11:25:53.326	0.090411
11:25:53.626	0.105295
11:25:53.926	0.081920
11:25:54.326	0.081338
11:25:54.626	0.066046
11:25:54.926	0.085082
11:25:55.325	0.088446
11:25:55.626	0.096977
11:25:55.926	0.091999
11:25:56.326	0.082655
11:25:56.627	0.081621
11:25:56.926	0.080111
11:25:57.326	0.079327
11:25:57.625	0.076978
11:25:58.026	0.081489
11:25:58.326	0.078811
11:25:58.726	0.082238
11:25:59.026	0.087201
11:25:59.326	0.087761
11:25:59.726	0.073867
11:26:00.026	0.080912
11:26:00.425	0.090980
11:26:00.726	0.081218
11:26:01.126	0.087536
11:26:01.426	0.087617
11:26:01.726	0.084252
11:26:02.126	0.092961
11:26:02.426	0.090597
11:26:02.826	0.074598
11:26:03.126	0.079165
11:26:03.526	0.091824
11:26:03.825	0.106831
11:26:04.127	0.077363
11:26:04.526	0.071924
11:26:04.825	0.077862
11:26:05.226	0.103830
11:26:05.526	0.100996
11:26:05.926	0.086668
11:26:06.226	0.086538
11:26:06.626	0.076516
11:26:06.926	0.087217
11:26:07.326	0.086942
11:26:07.626	0.085823
11:26:07.925	0.093329
11:26:08.326	0.086845
11:26:08.626	0.097319
11:26:08.926	0.089705
11:26:09.326	0.099632
11:26:09.626	0.092315
11:26:09.926	0.086431
11:26:10.326	0.085520
11:26:10.626	0.091150
11:26:11.025	0.082285
11:26:11.326	0.074635
11:26:11.726	0.082220
11:26:12.026	0.099241
11:26:12.326	0.091228
11:26:12.726	0.075405
11:26:13.027	0.075545
11:26:13.326	0.082943
11:26:13.726	0.081366
11:26:14.026	0.093484
11:26:14.426	0.096367
11:26:14.725	0.092192
11:26:15.026	0.086519
11:26:15.426	0.076230
11:26:15.726	0.068010
11:26:16.026	0.081716
11:26:16.426	0.086849
11:26:16.726	0.092042
11:26:17.026	0.076261
11:26:17.426	0.085638
11:26:17.726	0.083098
11:26:18.026	0.067024
11:26:18.426	0.083313
11:26:18.726	0.082140
11:26:19.126	0.081221
11:26:19.426	0.075716
11:26:19.826	0.076135
11:26:20.126	0.085855
11:26:20.526	0.096303
11:26:20.826	0.093953
11:26:21.126	0.100590
11:26:21.526	0.100245
11:26:21.826	0.080432
11:26:22.127	0.088259
11:26:22.526	0.078167
11:26:22.826	0.084441
11:26:23.126	0.088914
11:26:23.526	0.116093
11:26:23.826	0.102678
11:26:24.126	0.087749
11:26:24.526	0.075755
11:26:24.826	0.071178
11:26:25.126	0.073591
11:26:25.526	0.079999
11:26:25.826	0.089946
11:26:26.226	0.080023
11:26:26.627	0.088542
11:26:26.926	0.084998
11:26:27.226	0.078127
11:26:27.626	0.086915
11:26:27.926	0.088522
11:26:28.326	0.084656
11:26:28.626	0.086696
11:26:29.026	0.086302
11:26:29.426	0.083358
11:26:29.726	0.080783
11:26:30.126	0.096973
11:26:30.426	0.096443
11:26:30.726	0.094542
11:26:31.126	0.079782
11:26:31.426	0.094740
11:26:31.826	0.091521
11:26:32.126	0.093791
11:26:32.426	0.080004
11:26:32.826	0.088672
11:26:33.127	0.079401
11:26:33.526	0.085379
11:26:33.826	0.085072
11:26:34.226	0.092097
11:26:34.526	0.090235
11:26:34.927	0.073036
11:26:35.227	0.069927
11:26:35.626	0.063560
11:26:35.926	0.084536
11:26:36.226	0.090442
11:26:36.626	0.089259
11:26:36.927	0.087805
11:26:37.227	0.088958
11:26:37.626	0.080377
11:26:37.926	0.078553
11:26:38.226	0.081596
11:26:38.626	0.078137
11:26:38.926	0.076099
11:26:39.326	0.064914
11:26:39.626	0.072711
11:26:40.026	0.082364
11:26:40.326	0.078504
11:26:40.726	0.095240
11:26:41.026	0.091767
11:26:41.326	0.074337
11:26:41.726	0.085802
11:26:42.026	0.075017
11:26:42.326	0.070880
11:26:42.726	0.077009
11:26:43.026	0.075526
11:26:43.327	0.076983
11:26:43.726	0.065732
11:26:44.026	0.078476
11:26:44.326	0.078308
11:26:44.727	0.072680
11:26:45.026	0.077238
11:26:45.326	0.078934
11:26:45.727	0.071315
11:26:46.026	0.081534
11:26:46.327	0.098864
11:26:46.727	0.072113
11:26:47.026	0.074162
11:26:47.427	0.077988
11:26:47.727	0.072242
11:26:48.126	0.093282
11:26:48.426	0.096966
11:26:48.826	0.082866
11:26:49.126	0.082694
11:26:49.526	0.072432
11:26:49.827	0.069679
11:26:50.226	0.073523
11:26:50.527	0.084502
11:26:50.927	0.074584
11:26:51.226	0.075528
11:26:51.526	0.086364
11:26:51.927	0.086013
11:26:52.226	0.088110
11:26:52.627	0.095571
11:26:52.926	0.098588
11:26:53.327	0.087773
11:26:53.626	0.092365
11:26:53.926	0.121272
11:26:54.326	0.142533
11:26:54.627	0.150176
11:26:55.026	0.180839
11:26:55.326	0.196146
11:26:55.727	0.201710
11:26:56.027	0.173641
11:26:56.326	0.165925
11:26:56.726	0.142805
11:26:57.027	0.132376
11:26:57.326	0.129222
11:26:57.726	0.125408
11:26:58.026	0.103637
11:26:58.327	0.100460
11:26:58.727	0.081047
11:26:59.027	0.090850
11:26:59.327	0.083976
11:26:59.727	0.075307
11:27:00.027	0.069508
11:27:00.426	0.068513
11:27:00.726	0.069677
11:27:01.127	0.088840
11:27:01.427	0.074729
11:27:01.826	0.095278
11:27:02.127	0.088218
11:27:02.426	0.082240
11:27:02.827	0.084913
11:27:03.127	0.082429
11:27:03.526	0.077150
11:27:03.826	0.078972
11:27:04.227	0.072197
11:27:04.527	0.076406
11:27:04.926	0.084003
11:27:05.227	0.089697
11:27:05.527	0.091310
11:27:05.927	0.079496
11:27:06.227	0.076122
11:27:06.527	0.083008
11:27:06.927	0.074065
11:27:07.227	0.077462
11:27:07.627	0.084492
11:27:07.926	0.075568
11:27:08.327	0.093098
11:27:08.626	0.089818
11:27:09.027	0.082211
11:27:09.327	0.067676
11:27:09.627	0.069716
11:27:10.026	0.086405
11:27:10.326	0.070922
11:27:10.727	0.070828
11:27:11.027	0.070149
11:27:11.427	0.061092
11:27:11.727	0.087132
11:27:12.127	0.085842
11:27:12.427	0.080009
11:27:12.827	0.082310
11:27:13.127	0.070393
11:27:13.426	0.078586
11:27:13.827	0.075458
11:27:14.127	0.067086
11:27:14.527	0.085079
11:27:14.827	0.087279
11:27:15.227	0.078271
11:27:15.527	0.078292
11:27:15.927	0.080939
11:27:16.226	0.075864
11:27:16.627	0.080697
11:27:16.926	0.086105
11:27:17.327	0.087196
11:27:17.626	0.075133
11:27:18.027	0.067856
11:27:18.326	0.072336
11:27:18.627	0.095375
11:27:19.026	0.079913
11:27:19.327	0.082402
11:27:19.627	0.068808
11:27:20.027	0.047612
11:27:20.326	0.070266
11:27:20.627	0.082605
11:27:21.027	0.090407
11:27:21.327	0.092004
11:27:21.727	0.075800
11:27:22.026	0.069606
11:27:22.427	0.085423
11:27:22.727	0.078353
11:27:23.127	0.068226
11:27:23.426	0.063661
11:27:23.727	0.078594
11:27:24.126	0.081691
11:27:24.426	0.083966
11:27:24.727	0.083020
11:27:25.127	0.076321
11:27:25.427	0.074232
11:27:25.727	0.081105
11:27:26.127	0.084912
11:27:26.426	0.088036
11:27:26.727	0.083929
11:27:27.127	0.096053
11:27:27.426	0.091815
11:27:27.727	0.084480
11:27:28.127	0.080076
11:27:28.427	0.081452
11:27:28.827	0.083792
11:27:29.126	0.092289
11:27:29.527	0.093918
11:27:29.827	0.083114
11:27:30.227	0.068830
11:27:30.527	0.059980
11:27:30.927	0.062481
11:27:31.227	0.073825
11:27:31.627	0.084052
11:27:31.927	0.079258
11:27:32.327	0.076383
11:27:32.627	0.069834
11:27:33.027	0.076220
11:27:33.327	0.078952
11:27:33.626	0.070796
11:27:34.027	0.062698
11:27:34.326	0.055931
11:27:34.727	0.078804
11:27:35.027	0.069918
11:27:35.427	0.078471
11:27:35.726	0.080314
11:27:36.127	0.089617
11:27:36.427	0.088843
11:27:36.827	0.085769
11:27:37.127	0.076700
11:27:37.526	0.074532
11:27:37.826	0.072162
11:27:38.226	0.079469
11:27:38.527	0.078991
11:27:38.927	0.074870
11:27:39.227	0.078372
11:27:39.627	0.061797
11:27:39.927	0.065963
11:27:40.327	0.082152
11:27:40.627	0.097869
11:27:41.027	0.075412
11:27:41.327	0.069116
11:27:41.627	0.066460
11:27:42.027	0.082055
11:27:42.327	0.068843
11:27:42.627	0.067940
11:27:43.027	0.073904
11:27:43.326	0.079035
11:27:43.727	0.078822
11:27:44.027	0.082189
11:27:44.427	0.072488
11:27:44.727	0.082951
11:27:45.127	0.071934
11:27:45.427	0.085632
11:27:45.727	0.080097
11:27:46.127	0.097616
11:27:46.427	0.092182
11:27:46.827	0.072806
11:27:47.127	0.081264
11:27:47.527	0.066965
11:27:47.827	0.085911
11:27:48.227	0.086585
11:27:48.527	0.078028
11:27:48.827	0.074218
11:27:49.227	0.072599
11:27:49.527	0.067782
11:27:49.927	0.081064
11:27:50.227	0.092218
11:27:50.627	0.075154
11:27:50.926	0.071195
11:27:51.326	0.081171
11:27:51.627	0.070255
11:27:52.027	0.070786
11:27:52.327	0.093818
11:27:52.626	0.091851
11:27:53.027	0.088841
11:27:53.327	0.082641
11:27:53.727	0.071315
11:27:54.027	0.065666
11:27:54.427	0.063277
11:27:54.727	0.067760
11:27:55.127	0.079243
11:27:55.427	0.084470
11:27:55.727	0.084934
11:27:56.127	0.087361
11:27:56.427	0.088630
11:27:56.826	0.077157
11:27:57.127	0.077582
11:27:57.526	0.079761
11:27:57.827	0.081307
11:27:58.226	0.067896
11:27:58.526	0.076727
11:27:58.926	0.091864
11:27:59.226	0.091014
11:27:59.527	0.087198
11:27:59.926	0.077893
11:28:00.226	0.078266
11:28:00.627	0.079463
11:28:00.927	0.079132
11:28:01.327	0.084003
11:28:01.627	0.070447
11:28:02.026	0.086404
11:28:02.326	0.088689
11:28:02.727	0.078632
11:28:03.026	0.062002
11:28:03.427	0.065213
11:28:03.727	0.072827
11:28:04.127	0.082321
11:28:04.427	0.082470
11:28:04.827	0.077934
11:28:05.127	0.072544
11:28:05.527	0.079779
11:28:05.826	0.089207
11:28:06.227	0.078935
11:28:06.527	0.080762
11:28:06.827	0.081246
11:28:07.227	0.080179
11:28:07.526	0.080661
11:28:07.927	0.076683
11:28:08.227	0.081066
11:28:08.627	0.083383
11:28:08.927	0.073388
11:28:09.328	0.074436
11:28:09.627	0.079784
11:28:09.927	0.069252
11:28:10.327	0.072668
11:28:10.626	0.071917
11:28:10.927	0.064372
11:28:11.327	0.070023
11:28:11.627	0.074788
11:28:11.926	0.066024
11:28:12.327	0.073707
11:28:12.627	0.078003
11:28:13.027	0.074134
11:28:13.327	0.092938
11:28:13.727	0.088433
11:28:14.027	0.075192
11:28:14.427	0.082243
11:28:14.726	0.074428
11:28:15.127	0.071731
11:28:15.427	0.087116
11:28:15.826	0.071562
11:28:16.127	0.080960
11:28:16.527	0.077895
11:28:16.827	0.080046
11:28:17.127	0.087012
11:28:17.527	0.087368
11:28:17.827	0.082115
11:28:18.127	0.074341
11:28:18.527	0.085453
11:28:18.827	0.092305
11:28:19.127	0.089971
11:28:19.526	0.072423
11:28:19.827	0.075760
11:28:20.227	0.079379
11:28:20.527	0.070761
11:28:20.927	0.069468
11:28:21.227	0.071282
11:28:21.627	0.084606
11:28:21.927	0.092405
11:28:22.326	0.084896
11:28:22.627	0.080058
11:28:23.027	0.077934
11:28:23.326	0.079622
11:28:23.727	0.083699
11:28:24.027	0.084934
11:28:24.427	0.094177
11:28:24.727	0.093950
11:28:25.128	0.091455
11:28:25.426	0.091452
11:28:25.827	0.087382
11:28:26.127	0.074509
11:28:26.527	0.071220
11:28:26.827	0.072424
11:28:27.227	0.089645
11:28:27.527	0.079656
11:28:27.927	0.078803
11:28:28.227	0.082310
11:28:28.627	0.079561
11:28:28.927	0.068443
11:28:29.327	0.075065
11:28:29.727	0.072593
11:28:30.026	0.081608
11:28:30.427	0.082605
11:28:30.727	0.064735
11:28:31.027	0.082546
11:28:31.426	0.081026
11:28:31.727	0.092917
11:28:32.027	0.091427
11:28:32.427	0.086033
11:28:32.727	0.076274
11:28:33.127	0.062463
11:28:33.427	0.072943
11:28:33.827	0.080961
11:28:34.127	0.089188
11:28:34.527	0.084888
11:28:34.827	0.077965
11:28:35.126	0.084299
11:28:35.527	0.079964
11:28:35.827	0.063008
11:28:36.227	0.071540
11:28:36.527	0.066792
11:28:36.927	0.072035
11:28:37.227	0.086492
11:28:37.627	0.086921
11:28:37.927	0.064863
11:28:38.327	0.083614
11:28:38.627	0.081734
11:28:38.927	0.074256
11:28:39.327	0.088324
11:28:39.627	0.087923
11:28:40.026	0.082401
11:28:40.327	0.073905
11:28:40.727	0.076151
11:28:41.027	0.075688
11:28:41.427	0.087702
11:28:41.727	0.082292
11:28:42.127	0.069422
11:28:42.427	0.068429
11:28:42.827	0.083708
11:28:43.127	0.082778
11:28:43.527	0.093957
11:28:43.826	0.095910
11:28:44.126	0.094906
11:28:44.527	0.076060
11:28:44.826	0.073275
11:28:45.127	0.082258
11:28:45.526	0.085308
11:28:45.827	0.085315
11:28:46.127	0.086636
11:28:46.527	0.096863
11:28:46.827	0.094282
11:28:47.127	0.093022
11:28:47.527	0.078412
11:28:47.827	0.098448
11:28:48.226	0.104730
11:28:48.527	0.109178
11:28:48.927	0.108733
11:28:49.227	0.095859
11:28:49.627	0.106773
11:28:49.928	0.096973
11:28:50.327	0.102409
11:28:50.627	0.124894
11:28:51.027	0.132216
11:28:51.327	0.124560
11:28:51.727	0.143991
11:28:52.027	0.163978
11:28:52.327	0.157085
11:28:52.727	0.159995
11:28:53.027	0.169280
11:28:53.327	0.192074
11:28:53.727	0.200500
11:28:54.027	0.191781
11:28:54.426	0.196935
11:28:54.727	0.232377
11:28:55.127	0.252602
11:28:55.426	0.265314
11:28:55.827	0.269098
11:28:56.127	0.258680
11:28:56.526	0.233651
11:28:56.827	0.249691
11:28:57.127	0.273147
11:28:57.527	0.297196
11:28:57.826	0.306303
11:28:58.127	0.323265
11:28:58.527	0.325668
11:28:58.827	0.322005
11:28:59.126	0.313105
11:28:59.527	0.333492
11:28:59.827	0.341614
11:29:00.128	0.353260
11:29:00.527	0.355908
11:29:00.827	0.326294
11:29:01.127	0.312845
11:29:01.527	0.345629
11:29:01.827	0.362553
11:29:02.227	0.353793
11:29:02.527	0.366103
11:29:02.926	0.330492
11:29:03.227	0.328815
11:29:03.627	0.328359
11:29:03.927	0.328754
11:29:04.327	0.345618
11:29:04.627	0.326660
11:29:05.026	0.325754
11:29:05.327	0.308680
11:29:05.726	0.319754
11:29:06.027	0.318060
11:29:06.327	0.305375
11:29:06.727	0.277253
11:29:07.026	0.283073
11:29:07.327	0.282647
11:29:07.727	0.275197
11:29:08.027	0.221549
11:29:08.427	0.219829
11:29:08.727	0.228734
11:29:09.126	0.201024
11:29:09.427	0.195214
11:29:09.827	0.190557
11:29:10.127	0.179991
11:29:10.427	0.173578
11:29:10.827	0.169076
11:29:11.127	0.161292
11:29:11.527	0.185213
11:29:11.827	0.183936
11:29:12.227	0.151261
11:29:12.527	0.158743
11:29:12.927	0.125538
11:29:13.227	0.111012
11:29:13.627	0.140995
11:29:13.927	0.135798
11:29:14.327	0.139040
11:29:14.627	0.131648
11:29:15.027	0.134310
11:29:15.327	0.110999
11:29:15.727	0.125015
11:29:16.027	0.125300
11:29:16.427	0.121725
11:29:16.727	0.109139
11:29:17.127	0.099798
11:29:17.427	0.104966
11:29:17.727	0.106805
11:29:18.127	0.109083
11:29:18.427	0.096632
11:29:18.827	0.105715
11:29:19.128	0.097395
11:29:19.427	0.090180
11:29:19.827	0.096860
11:29:20.127	0.090765
11:29:20.527	0.091928
11:29:20.827	0.088431
11:29:21.227	0.087312
11:29:21.527	0.092720
11:29:21.927	0.096363
11:29:22.227	0.098815
11:29:22.627	0.099598
11:29:22.927	0.093004
11:29:23.227	0.103974
11:29:23.627	0.095807
11:29:23.927	0.088568
11:29:24.327	0.086598
11:29:24.627	0.079513
11:29:25.027	0.092622
11:29:25.327	0.085072
11:29:25.727	0.086311
11:29:26.027	0.082989
11:29:26.427	0.067499
11:29:26.727	0.093349
11:29:27.127	0.112170
11:29:27.427	0.097516
11:29:27.827	0.087050
11:29:28.127	0.082112
11:29:28.427	0.080747
11:29:28.827	0.076364
11:29:29.127	0.067860
11:29:29.427	0.071595
11:29:29.827	0.072425
11:29:30.127	0.070583
11:29:30.527	0.063861
11:29:30.827	0.058194
11:29:31.227	0.063283
11:29:31.527	0.061305
11:29:31.927	0.070842
11:29:32.227	0.070603
11:29:32.527	0.067258
11:29:32.927	0.061958
11:29:33.227	0.067069
11:29:33.527	0.081209
11:29:33.927	0.063229
11:29:34.227	0.069584
11:29:34.627	0.061598
11:29:34.927	0.050210
11:29:35.327	0.047450
11:29:35.627	0.066472
11:29:36.027	0.072471
11:29:36.327	0.069060
11:29:36.727	0.067134
11:29:37.027	0.060823
11:29:37.327	0.067777
11:29:37.727	0.066163