Chart Recorder Data File Mon, Sep 23, 2024 10:10 AM
Time (s)	CH1 (V)  
09:51:18.396	0.052697
09:51:19.296	0.042329
09:51:19.596	0.049795
09:51:19.995	0.048214
09:51:20.295	0.053405
09:51:20.596	0.062179
09:51:20.995	0.054594
09:51:21.296	0.047687
09:51:21.596	0.055478
09:51:21.996	0.061749
09:51:22.295	0.055128
09:51:22.695	0.043176
09:51:22.995	0.056302
09:51:23.396	0.036339
09:51:23.696	0.041959
09:51:24.095	0.065780
09:51:24.396	0.062650
09:51:24.695	0.058282
09:51:25.095	0.059313
09:51:25.396	0.056246
09:51:25.695	0.058973
09:51:26.096	0.059323
09:51:26.396	0.065143
09:51:26.796	0.059953
09:51:27.096	0.042632
09:51:27.396	0.045922
09:51:27.795	0.057858
09:51:28.095	0.045086
09:51:28.496	0.054258
09:51:28.796	0.060463
09:51:29.196	0.057146
09:51:29.496	0.063276
09:51:29.795	0.067998
09:51:30.196	0.063456
09:51:30.495	0.071639
09:51:30.895	0.059326
09:51:31.196	0.060563
09:51:31.496	0.043468
09:51:31.896	0.055937
09:51:32.195	0.056570
09:51:32.596	0.054045
09:51:32.895	0.066989
09:51:33.196	0.060485
09:51:33.596	0.063386
09:51:33.895	0.053232
09:51:34.296	0.046073
09:51:34.595	0.053222
09:51:34.996	0.060312
09:51:35.296	0.050150
09:51:35.597	0.046888
09:51:35.995	0.057838
09:51:36.296	0.061886
09:51:36.696	0.064483
09:51:36.995	0.069100
09:51:37.396	0.061042
09:51:37.696	0.051335
09:51:38.096	0.064324
09:51:38.396	0.054112
09:51:38.695	0.056563
09:51:39.095	0.072172
09:51:39.397	0.063721
09:51:39.695	0.066403
09:51:40.096	0.072003
09:51:40.396	0.052711
09:51:40.695	0.044358
09:51:41.097	0.079596
09:51:41.395	0.086406
09:51:41.696	0.086666
09:51:42.096	0.086646
09:51:42.395	0.101281
09:51:42.795	0.119871
09:51:43.095	0.122870
09:51:43.495	0.141079
09:51:43.796	0.145007
09:51:44.196	0.150260
09:51:44.495	0.141360
09:51:44.895	0.168057
09:51:45.196	0.194911
09:51:45.596	0.197720
09:51:45.895	0.204479
09:51:46.197	0.209710
09:51:46.595	0.213585
09:51:46.896	0.239384
09:51:47.295	0.236976
09:51:47.597	0.263585
09:51:47.996	0.275548
09:51:48.295	0.298172
09:51:48.595	0.333969
09:51:48.995	0.340026
09:51:49.295	0.428255
09:51:49.695	0.521425
09:51:49.996	0.635048
09:51:50.396	0.740984
09:51:50.697	0.813391
09:51:51.096	0.971221
09:51:51.396	1.139702
09:51:51.795	1.228843
09:51:52.096	1.320355
09:51:52.396	1.560691
09:51:52.795	1.761446
09:51:53.095	1.878269
09:51:53.495	2.180586
09:51:53.796	2.488131
09:51:55.096	2.522854
09:51:55.395	2.521206
09:51:55.695	2.622419
09:51:56.095	2.664280
09:51:56.396	2.560970
09:51:56.696	2.511150
09:51:57.095	2.534169
09:51:57.395	2.551908
09:51:57.696	2.495466
09:51:58.096	2.403330
09:51:58.396	2.432713
09:51:58.696	2.433684
09:51:59.096	2.383722
09:51:59.396	2.361450
09:51:59.796	2.351963
09:52:00.095	2.331372
09:52:00.497	2.354519
09:52:00.796	2.390135
09:52:01.196	2.330786
09:52:01.496	2.322804
09:52:01.895	2.187517
09:52:02.195	2.219658
09:52:02.496	2.154618
09:52:02.896	2.136371
09:52:03.196	2.073658
09:52:03.596	2.051753
09:52:03.895	1.797474
09:52:05.196	1.748167
09:52:05.496	1.673780
09:52:05.896	1.558161
09:52:06.196	1.498364
09:52:06.595	1.372496
09:52:06.895	1.300813
09:52:07.196	1.218052
09:52:07.595	1.069473
09:52:07.896	0.913129
09:52:08.296	0.763271
09:52:08.596	0.665618
09:52:08.896	0.564284
09:52:09.296	0.535601
09:52:09.596	0.517210
09:52:09.996	0.469540
09:52:10.296	0.409128
09:52:10.596	0.359138
09:52:10.996	0.292137
09:52:11.296	0.249523
09:52:11.596	0.231148
09:52:11.996	0.221471
09:52:12.295	0.226968
09:52:12.696	0.202834
09:52:12.996	0.195162
09:52:13.397	0.183850
09:52:13.695	0.169957
09:52:13.997	0.173945
09:52:14.396	0.139378
09:52:14.695	0.137923
09:52:15.096	0.100464
09:52:15.396	0.092854
09:52:15.696	0.090432
09:52:16.096	0.074741
09:52:16.396	0.083748
09:52:16.796	0.076339
09:52:17.096	0.066422
09:52:17.496	0.063993
09:52:17.796	0.071480
09:52:18.096	0.068507
09:52:18.496	0.057716
09:52:18.796	0.051215
09:52:19.096	0.061496
09:52:19.496	0.045674
09:52:19.795	0.060415
09:52:20.095	0.059506
09:52:20.496	0.059062
09:52:20.795	0.049642
09:52:21.196	0.046209
09:52:21.496	0.040633
09:52:21.896	0.049305
09:52:22.195	0.061078
09:52:22.596	0.053755
09:52:22.896	0.060455
09:52:23.295	0.042630
09:52:23.596	0.048766
09:52:23.896	0.047748
09:52:24.296	0.052960
09:52:24.596	0.062161
09:52:24.895	0.040254
09:52:25.296	0.039403
09:52:25.596	0.049023
09:52:25.896	0.066822
09:52:26.296	0.047346
09:52:26.595	0.041562
09:52:26.896	0.053197
09:52:27.296	0.051420
09:52:27.595	0.055518
09:52:27.895	0.049046
09:52:28.296	0.056665
09:52:28.596	0.056418
09:52:28.996	0.054727
09:52:29.296	0.052773
09:52:29.696	0.051326
09:52:29.996	0.060109
09:52:30.396	0.048592
09:52:30.696	0.047950
09:52:30.996	0.050086
09:52:31.396	0.050814
09:52:31.696	0.047790
09:52:31.995	0.040731
09:52:32.396	0.036893
09:52:32.695	0.034705
09:52:32.996	0.046320
09:52:33.395	0.053489
09:52:33.696	0.055300
09:52:34.096	0.050818
09:52:34.496	0.051368
09:52:34.796	0.044543
09:52:35.096	0.043804
09:52:35.496	0.063287
09:52:35.796	0.057770
09:52:36.196	0.044948
09:52:36.497	0.046108
09:52:36.796	0.044759
09:52:37.196	0.049029
09:52:37.496	0.045501
09:52:37.796	0.044837
09:52:38.195	0.044368
09:52:38.495	0.050559
09:52:38.796	0.068200
09:52:39.196	0.053091
09:52:39.496	0.058039
09:52:39.795	0.049513
09:52:40.196	0.054093
09:52:40.496	0.060924
09:52:40.896	0.053496
09:52:41.197	0.057412
09:52:41.596	0.031649
09:52:41.896	0.051126
09:52:42.296	0.023601
09:52:42.595	0.027568
09:52:42.996	0.012386
09:52:43.296	0.074169
09:52:43.695	0.039690
09:52:43.996	0.034750
09:52:44.396	0.039556
09:52:44.696	0.035013
09:52:44.996	0.056242
09:52:45.396	0.053768
09:52:45.696	0.043467
09:52:45.995	0.040605
09:52:46.396	0.042600
09:52:46.696	0.039465
09:52:46.996	0.037613
09:52:47.396	0.039054
09:52:47.696	0.047120
09:52:48.095	0.044394
09:52:48.395	0.044743
09:52:48.795	0.040365
09:52:49.096	0.045246
09:52:49.396	0.042076
09:52:49.795	0.052933
09:52:50.096	0.040973
09:52:50.496	0.036106
09:52:50.795	0.064445
09:52:51.096	0.048341
09:52:51.496	0.043016
09:52:51.796	0.039410
09:52:52.195	0.020374
09:52:52.495	0.035595
09:52:52.796	0.047774
09:52:53.196	0.053300
09:52:53.496	0.044207
09:52:53.896	0.050769
09:52:54.195	0.046709
09:52:54.496	0.054530
09:52:54.896	0.011294
09:52:55.196	0.040150
09:52:55.595	0.049476
09:52:55.895	0.019453
09:52:56.196	0.043362
09:52:56.595	0.033832
09:52:56.895	0.042139
09:52:57.295	0.023965
09:52:57.595	0.026480
09:52:57.896	0.049580
09:52:58.295	0.048886
09:52:58.596	0.042617
09:52:58.895	0.042586
09:52:59.296	0.024215
09:52:59.596	-0.016160
09:52:59.996	0.031952
09:53:00.295	0.032274
09:53:00.696	0.037285
09:53:00.996	0.096005
09:53:01.396	0.071884
09:53:01.696	0.060747
09:53:02.096	0.043356
09:53:02.396	0.054436
09:53:02.795	0.054001
09:53:03.096	0.051265
09:53:03.496	0.052104
09:53:03.796	0.029679
09:53:04.196	0.071938
09:53:04.495	0.056419
09:53:04.896	0.044351
09:53:05.196	0.049254
09:53:05.596	0.050496
09:53:05.896	0.048303
09:53:06.196	0.044239
09:53:06.595	0.038743
09:53:06.896	0.040220
09:53:07.196	0.046952
09:53:07.596	0.051994
09:53:07.895	0.047898
09:53:08.196	0.045857
09:53:08.595	0.031571
09:53:08.896	0.053314
09:53:09.296	0.032186
09:53:09.696	0.045106
09:53:09.996	0.052241
09:53:10.297	0.043698
09:53:10.696	0.046144
09:53:10.996	0.050898
09:53:11.396	0.051508
09:53:11.696	0.049248
09:53:12.095	0.060879
09:53:12.396	0.052049
09:53:12.696	0.034619
09:53:13.096	0.008235
09:53:13.496	0.049911
09:53:13.796	0.062332
09:53:14.096	0.057798
09:53:14.495	0.055690
09:53:14.796	0.068327
09:53:15.096	0.071585
09:53:15.496	0.085693
09:53:15.797	0.066037
09:53:16.096	0.075292
09:53:16.496	0.078392
09:53:16.795	0.113601
09:53:17.196	0.091064
09:53:17.496	0.101393
09:53:17.895	0.130637
09:53:18.196	0.114449
09:53:18.596	0.125931
09:53:18.897	0.128699
09:53:19.196	0.147076
09:53:19.596	0.157875
09:53:19.896	0.157718
09:53:20.195	0.179059
09:53:20.596	0.178084
09:53:20.895	0.178456
09:53:21.196	0.197168
09:53:21.596	0.216352
09:53:21.897	0.222803
09:53:22.196	0.225027
09:53:22.596	0.241191
09:53:22.895	0.246245
09:53:23.195	0.238075
09:53:23.595	0.263982
09:53:23.896	0.297950
09:53:24.196	0.341273
09:53:24.596	0.311245
09:53:24.896	0.306052
09:53:25.296	0.330654
09:53:25.596	0.355796
09:53:25.996	0.365710
09:53:26.296	0.371256
09:53:26.696	0.359716
09:53:26.996	0.386791
09:53:27.396	0.401252
09:53:27.696	0.393200
09:53:28.096	0.424038
09:53:28.396	0.420244
09:53:28.796	0.438177
09:53:29.096	0.458488
09:53:29.395	0.443866
09:53:29.796	0.460323
09:53:30.096	0.452136
09:53:30.496	0.483287
09:53:30.796	0.488115
09:53:31.196	0.511744
09:53:31.497	0.534472
09:53:31.896	0.516204
09:53:32.196	0.529112
09:53:32.596	0.550165
09:53:32.896	0.523668
09:53:33.196	0.542508
09:53:33.596	0.549267
09:53:33.896	0.553049
09:53:34.196	0.570023
09:53:34.596	0.523599
09:53:34.896	0.535947
09:53:35.196	0.564833
09:53:35.597	0.562072
09:53:35.896	0.590170
09:53:36.197	0.567157
09:53:36.595	0.563156
09:53:36.896	0.571272
09:53:37.296	0.591792
09:53:37.596	0.593946
09:53:37.995	0.637305
09:53:38.297	0.613732
09:53:38.596	0.598697
09:53:38.996	0.612675
09:53:39.296	0.593614
09:53:39.696	0.596304
09:53:39.996	0.589001
09:53:40.396	0.575741
09:53:40.696	0.618097
09:53:41.096	0.639325
09:53:41.396	0.637559
09:53:41.796	0.632718
09:53:42.096	0.641750
09:53:42.396	0.628735
09:53:42.796	0.622434
09:53:43.096	0.627281
09:53:43.396	0.647009
09:53:43.796	0.652137
09:53:44.096	0.632126
09:53:44.396	0.613575
09:53:44.796	0.667239
09:53:45.096	0.672811
09:53:45.496	0.643189
09:53:45.796	0.605499
09:53:46.196	0.641230
09:53:46.496	0.640673
09:53:46.896	0.616053
09:53:47.197	0.642159
09:53:47.496	0.653912
09:53:47.896	0.643099
09:53:48.196	0.673182
09:53:48.496	0.664323
09:53:48.896	0.693704
09:53:49.196	0.669982
09:53:49.496	0.667644
09:53:49.896	0.708144
09:53:50.197	0.678484
09:53:50.496	0.663577
09:53:50.896	0.666524
09:53:51.196	0.652029
09:53:51.496	0.651603
09:53:51.897	0.627870
09:53:52.196	0.645422
09:53:52.496	0.625782
09:53:52.896	0.626878
09:53:53.196	0.637742
09:53:53.596	0.643619
09:53:53.896	0.644378
09:53:54.296	0.667359
09:53:54.596	0.644566
09:53:54.996	0.640414
09:53:55.296	0.637130
09:53:55.696	0.621246
09:53:55.997	0.626170
09:53:56.296	0.657756
09:53:56.696	0.622534
09:53:56.996	0.626291
09:53:57.296	0.642446
09:53:57.696	0.652253
09:53:57.996	0.641217
09:53:58.396	0.625488
09:53:58.696	0.537438
09:53:59.096	0.461949
09:53:59.396	0.380995
09:53:59.696	0.371029
09:54:00.096	0.378440
09:54:00.396	0.400230
09:54:00.796	0.433573
09:54:01.096	0.418722
09:54:01.396	0.373161
09:54:01.796	0.389028
09:54:02.096	0.410616
09:54:02.396	0.374149
09:54:02.797	0.378739
09:54:03.096	0.374110
09:54:03.396	0.372448
09:54:03.796	0.402348
09:54:04.096	0.388721
09:54:04.396	0.376808
09:54:04.796	0.404846
09:54:05.096	0.405532
09:54:05.397	0.418720
09:54:05.796	0.385092
09:54:06.096	0.396562
09:54:06.496	0.393515
09:54:06.796	0.397349
09:54:07.197	0.422284
09:54:07.497	0.388371
09:54:07.896	0.382139
09:54:08.196	0.366149
09:54:08.496	0.355470
09:54:08.896	0.347205
09:54:09.197	0.346658
09:54:09.496	0.383787
09:54:09.896	0.383534
09:54:10.196	0.413285
09:54:10.496	0.401983
09:54:10.896	0.390255
09:54:11.197	0.370754
09:54:11.496	0.361063
09:54:11.896	0.371593
09:54:12.196	0.381486
09:54:12.497	0.390634
09:54:12.896	0.375109
09:54:13.196	0.360297
09:54:13.596	0.354136
09:54:13.896	0.356921
09:54:14.296	0.366505
09:54:14.596	0.395510
09:54:14.997	0.388558
09:54:15.297	0.369311
09:54:15.596	0.376475
09:54:15.996	0.380732
09:54:16.297	0.390955
09:54:16.596	0.372684
09:54:16.997	0.380929
09:54:17.296	0.389629
09:54:17.596	0.367596
09:54:17.996	0.358975
09:54:18.297	0.356606
09:54:18.597	0.374537
09:54:18.997	0.309579
09:54:19.296	0.313321
09:54:19.696	0.336508
09:54:19.996	0.344815
09:54:20.396	0.352265
09:54:20.696	0.356803
09:54:21.096	0.367986
09:54:21.397	0.385764
09:54:21.797	0.368938
09:54:22.097	0.357230
09:54:22.496	0.359782
09:54:22.796	0.333820
09:54:23.196	0.332957
09:54:23.496	0.319002
09:54:23.897	0.322086
09:54:24.196	0.327818
09:54:24.497	0.318881
09:54:24.896	0.338713
09:54:25.197	0.313186
09:54:25.497	0.300237
09:54:25.897	0.296169
09:54:26.197	0.297314
09:54:26.596	0.289591
09:54:26.897	0.277116
09:54:27.296	0.260798
09:54:27.597	0.264380
09:54:27.997	0.253321
09:54:28.297	0.259893
09:54:28.696	0.249446
09:54:28.997	0.279768
09:54:29.396	0.263547
09:54:29.697	0.267162
09:54:30.097	0.252050
09:54:30.397	0.241101
09:54:30.797	0.246090
09:54:31.097	0.238069
09:54:31.397	0.219801
09:54:31.797	0.236341
09:54:32.097	0.256000
09:54:32.497	0.234756
09:54:32.797	0.217911
09:54:33.196	0.237332
09:54:33.496	0.242304
09:54:33.897	0.269175
09:54:34.197	0.251206
09:54:34.596	0.221696
09:54:34.897	0.226860
09:54:35.297	0.248195
09:54:35.597	0.229257
09:54:35.996	0.241001
09:54:36.297	0.242497
09:54:36.696	0.263955
09:54:36.997	0.254412
09:54:37.396	0.223459
09:54:37.697	0.235675
09:54:38.096	0.255433
09:54:38.396	0.255691
09:54:38.696	0.272836
09:54:39.097	0.283179
09:54:39.397	0.302822
09:54:39.696	0.334664
09:54:40.096	0.370319
09:54:40.397	0.378561
09:54:40.796	0.382381
09:54:41.096	0.401449
09:54:41.496	0.441006
09:54:41.797	0.441876
09:54:42.097	0.429132
09:54:42.498	0.464532
09:54:42.797	0.470128
09:54:43.197	0.494827
09:54:43.497	0.459927
09:54:43.797	0.490129
09:54:44.197	0.522430
09:54:44.497	0.536332
09:54:44.797	0.609385
09:54:45.197	0.623539
09:54:45.496	0.609597
09:54:45.796	0.592447
09:54:46.197	0.611158
09:54:46.497	0.602926
09:54:46.797	0.597682
09:54:47.196	0.601622
09:54:47.496	0.585223
09:54:47.796	0.600416
09:54:48.197	0.606046
09:54:48.496	0.599128
09:54:48.897	0.636594
09:54:49.197	0.670660
09:54:49.597	0.644321
09:54:49.896	0.654858
09:54:50.296	0.660004
09:54:50.597	0.694358
09:54:50.897	0.665149
09:54:51.298	0.651763
09:54:51.596	0.643643
09:54:51.997	0.637003
09:54:52.297	0.624973
09:54:52.697	0.625406
09:54:52.997	0.622426
09:54:53.397	0.582066
09:54:53.697	0.606493
09:54:53.997	0.607166
09:54:54.396	0.590200
09:54:54.697	0.584227
09:54:55.096	0.548889
09:54:55.397	0.513463
09:54:55.797	0.514956
09:54:56.097	0.472419
09:54:56.398	0.454427
09:54:56.797	0.394498
09:54:57.096	0.365643
09:54:57.497	0.360806
09:54:57.797	0.358334
09:54:58.197	0.369101
09:54:58.496	0.312716
09:54:58.796	0.294043
09:54:59.197	0.277531
09:54:59.496	0.302264
09:54:59.896	0.260274
09:55:00.196	0.240989
09:55:00.497	0.240375
09:55:00.897	0.221131
09:55:01.197	0.219360
09:55:01.596	0.203726
09:55:01.896	0.196072
09:55:02.297	0.174467
09:55:02.596	0.163036
09:55:02.997	0.163383
09:55:03.296	0.160032
09:55:03.696	0.141437
09:55:03.997	0.138934
09:55:04.396	0.174492
09:55:04.696	0.179390
09:55:05.097	0.155766
09:55:05.396	0.157693
09:55:05.797	0.138223
09:55:06.097	0.140027
09:55:06.497	0.139639
09:55:06.797	0.126526
09:55:07.196	0.111548
09:55:07.497	0.125663
09:55:07.896	0.142585
09:55:08.196	0.127632
09:55:08.597	0.129673
09:55:08.896	0.119729
09:55:09.297	0.188528
09:55:09.597	0.203489
09:55:09.996	0.180519
09:55:10.298	0.154418
09:55:10.696	0.150479
09:55:10.997	0.177504
09:55:11.397	0.192397
09:55:11.697	0.189184
09:55:12.097	0.142726
09:55:12.397	0.163283
09:55:12.797	0.159709
09:55:13.096	0.173345
09:55:13.497	0.155876
09:55:13.797	0.148067
09:55:14.096	0.162029
09:55:14.497	0.164834
09:55:14.797	0.161828
09:55:15.097	0.161739
09:55:15.497	0.122200
09:55:15.797	0.138357
09:55:16.197	0.139427
09:55:16.497	0.150639
09:55:16.797	0.158465
09:55:17.196	0.118673
09:55:17.497	0.120843
09:55:17.897	0.157132
09:55:18.197	0.151610
09:55:18.596	0.139845
09:55:18.897	0.147526
09:55:19.297	0.154455
09:55:19.597	0.137959
09:55:19.897	0.135925
09:55:20.297	0.121698
09:55:20.597	0.104127
09:55:20.996	0.124576
09:55:21.297	0.117948
09:55:21.697	0.118223
09:55:21.996	0.126746
09:55:22.397	0.128150
09:55:22.696	0.129445
09:55:23.097	0.145918
09:55:23.396	0.159605
09:55:23.797	0.120076
09:55:24.096	0.135916
09:55:24.497	0.164846
09:55:24.797	0.175666
09:55:25.197	0.135897
09:55:25.497	0.154131
09:55:25.896	0.164604
09:55:26.197	0.161783
09:55:26.597	0.148117
09:55:26.896	0.144839
09:55:27.197	0.172250
09:55:27.597	0.177512
09:55:27.897	0.180028
09:55:28.297	0.175313
09:55:28.596	0.165534
09:55:28.897	0.137328
09:55:29.296	0.112563
09:55:29.597	0.222506
09:55:29.897	0.199052
09:55:30.297	0.169913
09:55:30.596	0.154127
09:55:30.896	0.165166
09:55:31.297	0.188352
09:55:31.596	0.190696
09:55:31.897	0.182462
09:55:32.297	0.179549
09:55:32.596	0.174620
09:55:32.996	0.171872
09:55:33.297	0.185061
09:55:33.697	0.167702
09:55:33.996	0.179698
09:55:34.396	0.162164
09:55:34.697	0.170274
09:55:35.097	0.179065
09:55:35.397	0.191562
09:55:35.796	0.187016
09:55:36.096	0.207664
09:55:36.397	0.209202
09:55:36.797	0.177678
09:55:37.096	0.186740
09:55:37.497	0.188858
09:55:37.797	0.181290
09:55:38.097	0.168856
09:55:38.497	0.184991
09:55:38.796	0.191343
09:55:39.197	0.192945
09:55:39.497	0.189106
09:55:39.897	0.161265
09:55:40.197	0.173315
09:55:40.597	0.188158
09:55:40.897	0.205949
09:55:41.297	0.197183
09:55:41.597	0.202565
09:55:41.996	0.196256
09:55:42.296	0.213952
09:55:42.697	0.212146
09:55:42.998	0.218691
09:55:43.297	0.221387
09:55:43.697	0.207313
09:55:43.996	0.207064
09:55:44.296	0.209937
09:55:44.696	0.223294
09:55:44.997	0.221527
09:55:45.297	0.225678
09:55:45.697	0.225609
09:55:45.997	0.227217
09:55:46.296	0.216150
09:55:46.697	0.236283
09:55:46.997	0.228280
09:55:47.297	0.227833
09:55:47.697	0.239184
09:55:47.996	0.265406
09:55:48.397	0.271082
09:55:48.696	0.265715
09:55:49.097	0.262223
09:55:49.397	0.269907
09:55:49.696	0.275944
09:55:50.096	0.280698
09:55:50.397	0.272941
09:55:50.796	0.261867
09:55:51.096	0.270345
09:55:51.497	0.270957
09:55:51.797	0.271736
09:55:52.097	0.294738
09:55:52.497	0.276882
09:55:52.797	0.290578
09:55:53.097	0.285476
09:55:53.497	0.270796
09:55:53.797	0.261270
09:55:54.197	0.287995
09:55:54.496	0.302106
09:55:54.897	0.292678
09:55:55.197	0.309061
09:55:55.597	0.306700
09:55:55.897	0.359776
09:55:56.297	0.355999
09:55:56.597	0.326799
09:55:56.997	0.329120
09:55:57.296	0.331930
09:55:57.697	0.330967
09:55:57.997	0.339630
09:55:58.297	0.324567
09:55:58.697	0.338618
09:55:58.996	0.354126
09:55:59.297	0.343525
09:55:59.697	0.334732
09:55:59.997	0.312920
09:56:00.397	0.317991
09:56:00.697	0.320700
09:56:01.097	0.325425
09:56:01.397	0.349014
09:56:01.797	0.341750
09:56:02.097	0.338939
09:56:02.397	0.317659
09:56:02.797	0.316238
09:56:03.096	0.305456
09:56:03.497	0.316073
09:56:03.797	0.309913
09:56:04.097	0.311168
09:56:04.497	0.306178
09:56:04.797	0.308139
09:56:05.096	0.315356
09:56:05.497	0.319955
09:56:05.797	0.294433
09:56:06.197	0.290425
09:56:06.497	0.268856
09:56:06.897	0.253915
09:56:07.197	0.256991
09:56:07.597	0.246923
09:56:07.897	0.246081
09:56:08.297	0.264026
09:56:08.597	0.251231
09:56:08.997	0.230251
09:56:09.297	0.234871
09:56:09.697	0.244741
09:56:09.996	0.249679
09:56:10.397	0.243011
09:56:10.697	0.205047
09:56:11.097	0.212647
09:56:11.397	0.219823
09:56:11.797	0.224397
09:56:12.097	0.217988
09:56:12.397	0.200615
09:56:12.797	0.199178
09:56:13.097	0.196594
09:56:13.397	0.187400
09:56:13.797	0.173615
09:56:14.097	0.172211
09:56:14.396	0.193048
09:56:14.797	0.171405
09:56:15.097	0.175242
09:56:15.497	0.186654
09:56:15.797	0.206957
09:56:16.096	0.204979
09:56:16.497	0.180313
09:56:16.797	0.189800
09:56:17.097	0.193321
09:56:17.498	0.180153
09:56:17.797	0.187621
09:56:18.096	0.179621
09:56:18.497	0.177655
09:56:18.797	0.153736
09:56:19.096	0.152944
09:56:19.496	0.161555
09:56:19.797	0.169070
09:56:20.097	0.168641
09:56:20.497	0.161745
09:56:20.797	0.165795
09:56:21.097	0.151309
09:56:21.496	0.167460
09:56:21.796	0.168316
09:56:22.197	0.149580
09:56:22.497	0.139613
09:56:22.896	0.163538
09:56:23.196	0.154858
09:56:23.597	0.160342
09:56:23.896	0.138704
09:56:24.197	0.121714
09:56:24.597	0.100800
09:56:24.897	0.106949
09:56:25.197	0.095971
09:56:25.597	0.099775
09:56:25.897	0.104692
09:56:26.197	0.101692
09:56:26.597	0.095846
09:56:26.897	0.095910
09:56:27.297	0.104137
09:56:27.597	0.087014
09:56:27.997	0.086744
09:56:28.296	0.094768
09:56:28.597	0.089353
09:56:28.997	0.097465
09:56:29.297	0.086221
09:56:29.697	0.090893
09:56:29.996	0.106659
09:56:30.297	0.100392
09:56:30.697	0.093233
09:56:30.997	0.101184
09:56:31.397	0.082646
09:56:31.697	0.092838
09:56:32.096	0.101244
09:56:32.397	0.103801
09:56:32.797	0.118009
09:56:33.097	0.134397
09:56:33.397	0.133094
09:56:33.797	0.131231
09:56:34.097	0.130021
09:56:34.397	0.146599
09:56:34.797	0.153684
09:56:35.097	0.188609
09:56:35.497	0.196720
09:56:35.797	0.208134
09:56:36.197	0.226416
09:56:36.497	0.272434
09:56:36.897	0.342436
09:56:37.197	0.370919
09:56:37.497	0.502002
09:56:37.897	0.717730
09:56:38.197	0.819774
09:56:38.497	1.037813
09:56:38.897	1.252858
09:56:39.196	1.400848
09:56:39.497	1.667443
09:56:39.897	1.995551
09:56:40.196	2.137227
09:56:40.597	3.098001
09:56:41.897	3.344900
09:56:42.197	3.511042
09:56:42.497	3.716253
09:56:42.897	3.907323
09:56:43.197	4.025453
09:56:43.597	4.140239
09:56:43.897	4.265664
09:56:44.297	4.426877
09:56:44.597	4.561146
09:56:44.997	4.556516
09:56:45.296	4.638702
09:56:45.697	4.649266
09:56:45.996	4.768857
09:56:46.397	4.921834
09:56:46.696	4.969942
09:56:47.097	5.055438
09:56:47.397	5.119335
09:56:47.697	5.131843
09:56:48.097	5.248063
09:56:48.397	5.336497
09:56:48.797	5.374695
09:56:49.097	5.400483
09:56:49.497	5.429680
09:56:49.797	5.327334
09:56:50.197	5.285578
09:56:50.497	5.254416
09:56:50.897	5.295791
09:56:51.197	5.301624
09:56:51.597	5.179238
09:56:51.897	5.119354
09:56:52.297	4.978978
09:56:52.597	4.855728
09:56:52.997	4.664624
09:56:53.297	4.464739
09:56:53.697	4.059922
09:56:53.997	3.817231
09:56:54.297	3.505870
09:56:54.697	3.250196
09:56:54.997	3.066282
09:56:55.297	2.726125
09:56:55.697	2.312217
09:56:55.997	2.147185
09:56:56.297	1.311995
09:56:57.597	1.111290
09:56:57.897	0.997058
09:56:58.297	0.836200
09:56:58.597	0.678574
09:56:58.997	0.602450
09:56:59.297	0.496101
09:56:59.697	0.444469
09:56:59.997	0.421117
09:57:00.397	0.370660
09:57:00.697	0.382719
09:57:01.097	0.337609
09:57:01.397	0.327241
09:57:01.797	0.298351
09:57:02.097	0.275414
09:57:02.398	0.275756
09:57:02.797	0.258155
09:57:03.097	0.259312
09:57:03.397	0.247947
09:57:03.797	0.215472
09:57:04.097	0.187110
09:57:04.497	0.189813
09:57:04.797	0.190093
09:57:05.197	0.166686
09:57:05.497	0.175872
09:57:05.897	0.165292
09:57:06.197	0.155867
09:57:06.597	0.159206
09:57:06.897	0.164484
09:57:07.297	0.142495
09:57:07.597	0.139117
09:57:07.897	0.133813
09:57:08.297	0.118210
09:57:08.597	0.116729
09:57:08.997	0.123135
09:57:09.297	0.111527
09:57:09.598	0.117385
09:57:09.998	0.102049
09:57:10.297	0.105636
09:57:10.697	0.096170
09:57:10.998	0.092298
09:57:11.397	0.094008
09:57:11.697	0.098547
09:57:12.097	0.095316
09:57:12.397	0.080170
09:57:12.697	0.076048
09:57:13.097	0.067048
09:57:13.397	0.075770
09:57:13.798	0.081272
09:57:14.098	0.078676
09:57:14.398	0.084283
09:57:14.797	0.070530
09:57:15.098	0.070544
09:57:15.497	0.090364
09:57:15.797	0.080696
09:57:16.197	0.075163
09:57:16.497	0.095185
09:57:16.797	0.090512
09:57:17.198	0.085322
09:57:17.497	0.083428
09:57:17.797	0.090751
09:57:18.197	0.086710
09:57:18.497	0.075721
09:57:18.897	0.073254
09:57:19.197	0.078894
09:57:19.497	0.061973
09:57:19.898	0.064826
09:57:20.197	0.073939
09:57:20.597	0.063173
09:57:20.897	0.060573
09:57:21.298	0.067504
09:57:21.598	0.073767
09:57:21.997	0.066700
09:57:22.297	0.068701
09:57:22.697	0.078916
09:57:22.998	0.074274
09:57:23.397	0.071426
09:57:23.697	0.081582
09:57:24.098	0.082077
09:57:24.398	0.083496
09:57:24.797	0.091285
09:57:25.098	0.086823
09:57:25.497	0.074240
09:57:25.797	0.068394
09:57:26.198	0.084049
09:57:26.498	0.083160
09:57:26.898	0.094421
09:57:27.197	0.074040
09:57:27.597	0.070960
09:57:27.897	0.086192
09:57:28.297	0.083511
09:57:28.598	0.081695
09:57:28.997	0.088101
09:57:29.298	0.082320
09:57:29.697	0.093547
09:57:29.997	0.096274
09:57:30.398	0.092476
09:57:30.698	0.103444
09:57:31.098	0.107197
09:57:31.397	0.098913
09:57:31.697	0.097166
09:57:32.098	0.095073
09:57:32.398	0.088733
09:57:32.798	0.089927
09:57:33.097	0.104542
09:57:33.497	0.106090
09:57:33.797	0.108206
09:57:34.097	0.098046
09:57:34.498	0.100601
09:57:34.798	0.100622
09:57:35.198	0.102995
09:57:35.498	0.109218
09:57:35.797	0.120418
09:57:36.198	0.132634
09:57:36.498	0.137748
09:57:36.898	0.167415
09:57:37.198	0.185957
09:57:37.597	0.182903
09:57:37.898	0.190291
09:57:38.197	0.203980
09:57:38.598	0.221012
09:57:38.897	0.218379
09:57:39.297	0.225365
09:57:39.598	0.246720
09:57:39.898	0.255734
09:57:40.298	0.284150
09:57:40.598	0.302574
09:57:40.997	0.313720
09:57:41.299	0.311097
09:57:41.598	0.289666
09:57:41.999	0.313566
09:57:42.298	0.322172
09:57:42.698	0.379678
09:57:42.997	0.345351
09:57:43.398	0.350749
09:57:43.697	0.358858
09:57:44.098	0.344967
09:57:44.398	0.348955
09:57:44.697	0.363470
09:57:45.097	0.369664
09:57:45.397	0.395225
09:57:45.698	0.424092
09:57:46.097	0.375054
09:57:46.398	0.368717
09:57:46.698	0.414408
09:57:47.097	0.410840
09:57:47.398	0.404691
09:57:47.798	0.396508
09:57:48.098	0.412401
09:57:48.497	0.437985
09:57:48.797	0.437250
09:57:49.197	0.441944
09:57:49.497	0.435598
09:57:49.897	0.440859
09:57:50.198	0.430557
09:57:50.598	0.442461
09:57:50.898	0.391756
09:57:51.297	0.400109
09:57:51.597	0.400876
09:57:51.897	0.368744
09:57:52.298	0.363397
09:57:52.597	0.352159
09:57:52.897	0.332687
09:57:53.297	0.333500
09:57:53.597	0.265340
09:57:53.998	0.249709
09:57:54.297	0.242093
09:57:54.698	0.219739
09:57:54.997	0.220450
09:57:55.398	0.195144
09:57:55.697	0.184529
09:57:56.098	0.169462
09:57:56.398	0.160416
09:57:56.798	0.149800
09:57:57.097	0.146653
09:57:57.498	0.132316
09:57:57.797	0.131533
09:57:58.198	0.141018
09:57:58.497	0.128454
09:57:58.898	0.121409
09:57:59.198	0.121875
09:57:59.598	0.108626
09:57:59.898	0.099989
09:58:00.298	0.106822
09:58:00.597	0.106709
09:58:00.998	0.102332
09:58:01.397	0.102751
09:58:01.698	0.088094
09:58:02.098	0.088640
09:58:02.397	0.085533
09:58:02.798	0.093491
09:58:03.098	0.085419
09:58:03.498	0.082404
09:58:03.798	0.075133
09:58:04.098	0.083965
09:58:04.497	0.073101
09:58:04.798	0.077179
09:58:05.197	0.071623
09:58:05.498	0.067405
09:58:05.897	0.069722
09:58:06.199	0.069710
09:58:06.598	0.065247
09:58:06.898	0.063753
09:58:07.297	0.055432
09:58:07.598	0.057366
09:58:07.897	0.056675
09:58:08.298	0.049589
09:58:08.598	0.057306
09:58:08.897	0.055579
09:58:09.298	0.047427
09:58:09.598	0.056216
09:58:09.897	0.059844
09:58:10.298	0.049426
09:58:10.597	0.050694
09:58:10.998	0.052609
09:58:11.297	0.049194
09:58:11.698	0.057178
09:58:11.998	0.057734
09:58:12.398	0.058164
09:58:12.698	0.051253
09:58:13.097	0.038320
09:58:13.397	0.039601
09:58:13.698	0.048034
09:58:14.097	0.054940
09:58:14.498	0.057458
09:58:14.798	0.062668
09:58:15.198	0.049440
09:58:15.498	0.048478
09:58:15.897	0.049828
09:58:16.198	0.051240
09:58:16.598	0.045943
09:58:16.898	0.033862
09:58:17.298	0.043884
09:58:17.598	0.042035
09:58:17.998	0.036717
09:58:18.298	0.042967
09:58:18.697	0.041946
09:58:18.998	0.039478
09:58:19.398	0.034314
09:58:19.698	0.041508
09:58:20.098	0.042497
09:58:20.398	0.043300
09:58:20.798	0.032748
09:58:21.097	0.045589
09:58:21.498	0.046447
09:58:21.797	0.042908
09:58:22.198	0.053006
09:58:22.498	0.057054
09:58:22.898	0.053321
09:58:23.198	0.058106
09:58:23.598	0.055361
09:58:23.897	0.052136
09:58:24.298	0.045826
09:58:24.598	0.050140
09:58:24.998	0.051675
09:58:25.298	0.046570
09:58:25.698	0.051992
09:58:25.997	0.038546
09:58:26.398	0.044960
09:58:26.698	0.045187
09:58:27.098	0.034325
09:58:27.398	0.033398
09:58:27.797	0.049916
09:58:28.097	0.059556
09:58:28.498	0.043194
09:58:28.798	0.037085
09:58:29.198	0.037445
09:58:29.498	0.038041
09:58:29.898	0.032566
09:58:30.198	0.028926
09:58:30.598	0.038212
09:58:30.898	0.036102
09:58:31.298	0.035402
09:58:31.597	0.034425
09:58:31.998	0.040580
09:58:32.297	0.045394
09:58:32.698	0.046048
09:58:32.997	0.051093
09:58:33.398	0.038244
09:58:33.697	0.054668
09:58:34.098	0.051994
09:58:34.398	0.052733
09:58:34.798	0.043293
09:58:35.097	0.048633
09:58:35.498	0.032925
09:58:35.798	0.040699
09:58:36.198	0.048033
09:58:36.497	0.060055
09:58:36.898	0.050436
09:58:37.198	0.045648
09:58:37.597	0.057706
09:58:37.898	0.074457
09:58:38.297	0.073227
09:58:38.597	0.034070
09:58:38.997	0.030517
09:58:39.297	0.044789
09:58:39.697	0.059098
09:58:39.998	0.057946
09:58:40.397	0.055040
09:58:40.698	0.073298
09:58:41.098	0.059463
09:58:41.398	0.045406
09:58:41.797	0.042791
09:58:42.098	0.045845
09:58:42.498	0.060362
09:58:42.798	0.053210
09:58:43.098	0.049593
09:58:43.498	0.053021
09:58:43.797	0.065473
09:58:44.198	0.074347
09:58:44.498	0.046632
09:58:44.898	0.045889
09:58:45.198	0.053660
09:58:45.598	0.048935
09:58:45.898	0.046428
09:58:46.298	0.057127
09:58:46.598	0.061117
09:58:46.998	0.061927
09:58:47.297	0.058552
09:58:47.698	0.051453
09:58:47.998	0.043855
09:58:48.398	0.035686
09:58:48.697	0.046578
09:58:49.098	0.046849
09:58:49.398	0.041731
09:58:49.798	0.042302
09:58:50.098	0.042202
09:58:50.498	0.038826
09:58:50.798	0.040728
09:58:51.198	0.035218
09:58:51.498	0.040694
09:58:51.897	0.042312
09:58:52.198	0.044312
09:58:52.597	0.035502
09:58:52.898	0.037980
09:58:53.297	0.040192
09:58:53.698	0.042461
09:58:53.997	0.038267
09:58:54.398	0.036883
09:58:54.698	0.043340
09:58:55.098	0.046610
09:58:55.398	0.040170
09:58:55.798	0.038060
09:58:56.098	0.039325
09:58:56.498	0.037081
09:58:56.798	0.038840
09:58:57.199	0.046212
09:58:57.498	0.039558
09:58:57.898	0.037385
09:58:58.197	0.037391
09:58:58.598	0.032426
09:58:58.898	0.038231
09:58:59.298	0.040873
09:58:59.598	0.047686
09:58:59.998	0.044474
09:59:00.298	0.046498
09:59:00.698	0.059248
09:59:00.997	0.052902
09:59:01.398	0.053884
09:59:01.698	0.058543
09:59:02.098	0.053656
09:59:02.398	0.053238
09:59:02.797	0.049692
09:59:03.098	0.048263
09:59:03.498	0.044957
09:59:03.797	0.043819
09:59:04.198	0.037236
09:59:04.498	0.039807
09:59:04.898	0.051326
09:59:05.198	0.056850
09:59:05.598	0.059065
09:59:05.897	0.046585
09:59:06.298	0.045052
09:59:06.598	0.043401
09:59:06.998	0.046835
09:59:07.298	0.058105
09:59:07.697	0.059470
09:59:07.998	0.045302
09:59:08.398	0.048219
09:59:08.798	0.042501
09:59:09.098	0.041668
09:59:09.498	0.044337
09:59:09.798	0.053549
09:59:10.198	0.067493
09:59:10.498	0.073231
09:59:10.898	0.055363
09:59:11.198	0.068486
09:59:11.498	0.060506
09:59:11.898	0.047386
09:59:12.197	0.050793
09:59:12.598	0.059318
09:59:12.898	0.054018
09:59:13.298	0.043785
09:59:13.598	0.054362
09:59:13.999	0.045341
09:59:14.298	0.041238
09:59:14.698	0.050015
09:59:14.997	0.059236
09:59:15.398	0.050016
09:59:15.698	0.049355
09:59:16.097	0.048879
09:59:16.397	0.046800
09:59:16.798	0.056730
09:59:17.097	0.065354
09:59:17.498	0.080972
09:59:17.798	0.076989
09:59:18.197	0.072311
09:59:18.497	0.063075
09:59:18.799	0.066835
09:59:19.198	0.049926
09:59:19.498	0.056108
09:59:19.898	0.059052
09:59:20.198	0.057180
09:59:20.598	0.061794
09:59:20.898	0.073923
09:59:21.298	0.079058
09:59:21.598	0.078806
09:59:21.998	0.081620
09:59:22.297	0.085896
09:59:22.698	0.093355
09:59:22.998	0.094636
09:59:23.398	0.087577
09:59:23.698	0.085358
09:59:24.098	0.090236
09:59:24.398	0.079812
09:59:24.798	0.084544
09:59:25.098	0.078066
09:59:25.498	0.080735
09:59:25.798	0.096635
09:59:26.197	0.076739
09:59:26.498	0.080902
09:59:26.898	0.077909
09:59:27.197	0.084678
09:59:27.598	0.088568
09:59:27.898	0.078764
09:59:28.297	0.074956
09:59:28.598	0.078898
09:59:28.998	0.078058
09:59:29.297	0.073938
09:59:29.698	0.071545
09:59:29.998	0.063285
09:59:30.298	0.061197
09:59:30.698	0.067386
09:59:30.998	0.070829
09:59:31.398	0.083400
09:59:31.698	0.085973
09:59:32.098	0.069657
09:59:32.398	0.069880
09:59:32.797	0.079326
09:59:33.098	0.072070
09:59:33.498	0.088740
09:59:33.798	0.076833
09:59:34.198	0.071005
09:59:34.498	0.081060
09:59:34.898	0.072217
09:59:35.198	0.070348
09:59:35.598	0.078248
09:59:35.899	0.085896
09:59:36.298	0.098523
09:59:36.598	0.090181
09:59:36.998	0.090796
09:59:37.298	0.073725
09:59:37.698	0.065687
09:59:37.998	0.074055
09:59:38.398	0.075733
09:59:38.698	0.087421
09:59:39.097	0.084020
09:59:39.398	0.077311
09:59:39.798	0.073429
09:59:40.098	0.069976
09:59:40.398	0.075998
09:59:40.798	0.070699
09:59:41.098	0.076429
09:59:41.498	0.074243
09:59:41.797	0.074055
09:59:42.198	0.064009
09:59:42.498	0.074091
09:59:42.898	0.075662
09:59:43.198	0.085135
09:59:43.598	0.081510
09:59:43.898	0.087316
09:59:44.298	0.082352
09:59:44.598	0.094218
09:59:44.998	0.084999
09:59:45.298	0.080491
09:59:45.698	0.077444
09:59:45.998	0.086462
09:59:46.398	0.105091
09:59:46.698	0.096842
09:59:47.098	0.108344
09:59:47.398	0.109230
09:59:47.798	0.092404
09:59:48.098	0.098589
09:59:48.498	0.117616
09:59:48.798	0.120448
09:59:49.198	0.103854
09:59:49.498	0.127303
09:59:49.898	0.128649
09:59:50.198	0.133999
09:59:50.598	0.130213
09:59:50.898	0.143797
09:59:51.298	0.125646
09:59:51.597	0.141099
09:59:51.998	0.145130
09:59:52.298	0.189720
09:59:52.598	0.205845
09:59:52.998	0.213105
09:59:53.298	0.214566
09:59:53.698	0.243701
09:59:53.998	0.255304
09:59:54.398	0.247419
09:59:54.698	0.261289
09:59:55.098	0.273082
09:59:55.398	0.270445
09:59:55.699	0.278605
09:59:56.098	0.299525
09:59:56.398	0.327352
09:59:56.798	0.327192
09:59:57.098	0.324719
09:59:57.498	0.344550
09:59:57.798	0.365477
09:59:58.098	0.359906
09:59:58.498	0.370691
09:59:58.798	0.409469
09:59:59.198	0.409316
09:59:59.498	0.401231
09:59:59.898	0.391817
10:00:00.199	0.388651
10:00:00.598	0.390804
10:00:00.898	0.409010
10:00:01.298	0.425551
10:00:01.598	0.424561
10:00:01.998	0.416224
10:00:02.298	0.453549
10:00:02.599	0.455296
10:00:02.998	0.476524
10:00:03.298	0.476499
10:00:03.698	0.445439
10:00:03.998	0.443314
10:00:04.399	0.459817
10:00:04.698	0.457824
10:00:05.098	0.474157
10:00:05.398	0.471016
10:00:05.798	0.466933
10:00:06.098	0.474874
10:00:06.498	0.427910
10:00:06.799	0.392838
10:00:07.198	0.445839
10:00:07.498	0.453828
10:00:07.898	0.454364
10:00:08.198	0.450890
10:00:08.598	0.417519
10:00:08.898	0.395438
10:00:09.298	0.390774
10:00:09.599	0.390863
10:00:09.898	0.386871
10:00:10.298	0.383160
10:00:10.598	0.393579
10:00:10.998	0.371388
10:00:11.398	0.348329
10:00:11.698	0.336945
10:00:12.099	0.313819
10:00:12.399	0.291388
10:00:12.799	0.296352
10:00:13.098	0.278891
10:00:13.498	0.260506
10:00:13.798	0.258175
10:00:14.199	0.277793
10:00:14.498	0.285744
10:00:14.798	0.273861
10:00:15.199	0.262113
10:00:15.498	0.238383
10:00:15.798	0.219970
10:00:16.199	0.199811
10:00:16.498	0.195022
10:00:16.899	0.196374
10:00:17.198	0.194049
10:00:17.599	0.168740
10:00:17.898	0.168387
10:00:18.298	0.146595
10:00:18.598	0.140722
10:00:18.999	0.127585
10:00:19.298	0.137541
10:00:19.598	0.146596
10:00:19.998	0.142363
10:00:20.299	0.117790
10:00:20.698	0.099830
10:00:20.998	0.097226
10:00:21.398	0.123236
10:00:21.699	0.114589
10:00:22.099	0.094454
10:00:22.398	0.103468
10:00:22.798	0.109274
10:00:23.099	0.117250
10:00:23.498	0.121042
10:00:23.799	0.118411
10:00:24.098	0.109531
10:00:24.498	0.099411
10:00:24.798	0.110744
10:00:25.199	0.108835
10:00:25.498	0.103694
10:00:25.899	0.098846
10:00:26.199	0.109341
10:00:26.598	0.102497
10:00:26.898	0.099831
10:00:27.299	0.104485
10:00:27.598	0.108238
10:00:27.999	0.108240
10:00:28.299	0.111349
10:00:28.699	0.110937
10:00:28.999	0.108314
10:00:29.399	0.092716
10:00:29.698	0.092318
10:00:29.999	0.092213
10:00:30.398	0.076548
10:00:30.699	0.083457
10:00:30.998	0.087243
10:00:31.399	0.090020
10:00:31.698	0.096629
10:00:32.099	0.087072
10:00:32.398	0.079592
10:00:32.798	0.080093
10:00:33.099	0.083903
10:00:33.498	0.076559
10:00:33.798	0.079476
10:00:34.199	0.063376
10:00:34.499	0.083360
10:00:34.899	0.082326
10:00:35.198	0.089921
10:00:35.599	0.087104
10:00:35.898	0.080671
10:00:36.299	0.083625
10:00:36.598	0.077459
10:00:36.999	0.070597
10:00:37.299	0.066777
10:00:37.599	0.070708
10:00:37.999	0.078910
10:00:38.299	0.082239
10:00:38.699	0.080494
10:00:38.998	0.083740
10:00:39.399	0.079257
10:00:39.698	0.083184
10:00:39.999	0.088009
10:00:40.399	0.087229
10:00:40.698	0.081856
10:00:41.099	0.082316
10:00:41.399	0.081789
10:00:41.798	0.070142
10:00:42.099	0.072422
10:00:42.498	0.071347
10:00:42.799	0.071281
10:00:43.198	0.076904
10:00:43.499	0.080646
10:00:43.899	0.080939
10:00:44.199	0.078099
10:00:44.598	0.081134
10:00:44.898	0.086621
10:00:45.298	0.067380
10:00:45.598	0.070403
10:00:45.999	0.070405
10:00:46.298	0.063564
10:00:46.699	0.068431
10:00:46.998	0.065400
10:00:47.398	0.064461
10:00:47.699	0.060328
10:00:48.099	0.067931
10:00:48.398	0.062733
10:00:48.798	0.058909
10:00:49.098	0.058974
10:00:49.498	0.051449
10:00:49.799	0.056423
10:00:50.198	0.064534
10:00:50.499	0.067844
10:00:50.799	0.060548
10:00:51.199	0.064761
10:00:51.499	0.067673
10:00:51.898	0.063436
10:00:52.198	0.071353
10:00:52.598	0.073751
10:00:52.899	0.065971
10:00:53.299	0.065781
10:00:53.599	0.066523
10:00:53.999	0.074720
10:00:54.299	0.064750
10:00:54.699	0.061546
10:00:55.000	0.062671
10:00:55.398	0.050021
10:00:55.699	0.050085
10:00:56.099	0.057468
10:00:56.399	0.066111
10:00:56.799	0.060772
10:00:57.099	0.052029
10:00:57.499	0.054746
10:00:57.798	0.048368
10:00:58.198	0.051452
10:00:58.499	0.058383
10:00:58.799	0.055620
10:00:59.199	0.062791
10:00:59.499	0.075647
10:00:59.898	0.064281
10:01:00.198	0.060302
10:01:00.599	0.060077
10:01:00.898	0.059458
10:01:01.298	0.060568
10:01:01.598	0.058178
10:01:01.999	0.054022
10:01:02.299	0.052014
10:01:02.699	0.057792
10:01:02.998	0.058966
10:01:03.399	0.065668
10:01:03.699	0.049636
10:01:03.998	0.055368
10:01:04.398	0.060638
10:01:04.699	0.060812
10:01:05.098	0.073135
10:01:05.399	0.066399
10:01:05.799	0.069031
10:01:06.099	0.064658
10:01:06.499	0.060176
10:01:06.799	0.062930
10:01:07.199	0.058494
10:01:07.498	0.059199
10:01:07.898	0.054672
10:01:08.199	0.063992
10:01:08.599	0.071154
10:01:08.899	0.071845
10:01:09.299	0.064087
10:01:09.599	0.057758
10:01:09.998	0.053371
10:01:10.299	0.059423
10:01:10.699	0.059523
10:01:10.998	0.067887
10:01:11.399	0.059448
10:01:11.698	0.058272
10:01:12.099	0.065290
10:01:12.399	0.052803
10:01:12.798	0.052115
10:01:13.099	0.055470
10:01:13.499	0.067624
10:01:13.799	0.046684
10:01:14.199	0.064864
10:01:14.499	0.057661
10:01:14.899	0.047051
10:01:15.199	0.052909
10:01:15.599	0.044371
10:01:15.899	0.053497
10:01:16.299	0.047637
10:01:16.598	0.046491
10:01:16.998	0.050078
10:01:17.399	0.050730
10:01:17.698	0.053876
10:01:18.099	0.053798
10:01:18.398	0.056396
10:01:18.799	0.057761
10:01:19.098	0.052909
10:01:19.498	0.060267
10:01:19.799	0.057470
10:01:20.199	0.065185
10:01:20.499	0.059031
10:01:20.899	0.055063
10:01:21.198	0.056782
10:01:21.599	0.059076
10:01:21.899	0.070977
10:01:22.299	0.056045
10:01:22.598	0.054614
10:01:22.999	0.058003
10:01:23.298	0.057922
10:01:23.698	0.059094
10:01:23.998	0.064277
10:01:24.299	0.058493
10:01:24.698	0.050956
10:01:24.998	0.059484
10:01:25.399	0.054645
10:01:25.699	0.053304
10:01:26.099	0.056014
10:01:26.399	0.054375
10:01:26.799	0.047179
10:01:27.099	0.045384
10:01:27.498	0.053259
10:01:27.798	0.046021
10:01:28.098	0.062800
10:01:28.499	0.063329
10:01:28.799	0.076911
10:01:29.199	0.074034
10:01:29.499	0.065116
10:01:29.899	0.058670
10:01:30.198	0.055287
10:01:30.598	0.067400
10:01:30.899	0.071798
10:01:31.298	0.056710
10:01:31.599	0.063337
10:01:31.999	0.075960
10:01:32.298	0.065420
10:01:32.699	0.056611
10:01:32.999	0.063188
10:01:33.399	0.057993
10:01:33.698	0.062602
10:01:34.099	0.055888
10:01:34.399	0.055127
10:01:34.799	0.057771
10:01:35.099	0.058731
10:01:35.399	0.057577
10:01:35.798	0.043435
10:01:36.098	0.051232
10:01:36.399	0.060365
10:01:36.799	0.061703
10:01:37.099	0.057191
10:01:37.498	0.061427
10:01:37.799	0.052207
10:01:38.199	0.050825
10:01:38.499	0.056461
10:01:38.899	0.043938
10:01:39.199	0.042963
10:01:39.599	0.049749
10:01:39.898	0.049468
10:01:40.299	0.049800
10:01:40.598	0.048310
10:01:40.998	0.046369
10:01:41.299	0.049227
10:01:41.699	0.040034
10:01:41.998	0.039995
10:01:42.299	0.043053
10:01:42.699	0.051642
10:01:42.999	0.049132
10:01:43.299	0.052890
10:01:43.699	0.050647
10:01:43.999	0.048683
10:01:44.398	0.055690
10:01:44.699	0.054527
10:01:45.099	0.058177
10:01:45.398	0.060492
10:01:45.799	0.056373
10:01:46.098	0.068957
10:01:46.499	0.059657
10:01:46.799	0.050573
10:01:47.200	0.049097
10:01:47.499	0.050104
10:01:47.899	0.052589
10:01:48.199	0.056865
10:01:48.598	0.050201
10:01:48.899	0.057172
10:01:49.199	0.053881
10:01:49.598	0.061575
10:01:49.898	0.053813
10:01:50.299	0.051600
10:01:50.599	0.052430
10:01:50.998	0.043613
10:01:51.299	0.054288
10:01:51.699	0.056568
10:01:51.998	0.053504
10:01:52.399	0.053399
10:01:52.699	0.053769
10:01:53.099	0.049516
10:01:53.399	0.061131
10:01:53.799	0.064557
10:01:54.099	0.065472
10:01:54.399	0.059151
10:01:54.799	0.056479
10:01:55.099	0.051568
10:01:55.499	0.057721
10:01:55.799	0.049876
10:01:56.098	0.058768
10:01:56.500	0.058112
10:01:56.898	0.057723
10:01:57.199	0.067360
10:01:57.499	0.067557
10:01:57.898	0.065026
10:01:58.199	0.068005
10:01:58.599	0.056717
10:01:58.899	0.066719
10:01:59.299	0.068059
10:01:59.598	0.071385
10:01:59.999	0.056411
10:02:00.299	0.054563
10:02:00.699	0.054463
10:02:00.999	0.064668
10:02:01.399	0.062940
10:02:01.698	0.048314
10:02:02.099	0.060062
10:02:02.399	0.061933
10:02:02.799	0.055499
10:02:03.099	0.057129
10:02:03.499	0.063983
10:02:03.798	0.072094
10:02:04.199	0.048198
10:02:04.498	0.072910
10:02:04.899	0.066124
10:02:05.200	0.062852
10:02:05.598	0.068307
10:02:05.899	0.060390
10:02:06.299	0.068972
10:02:06.599	0.059491
10:02:06.999	0.053391
10:02:07.299	0.061611
10:02:07.699	0.060283
10:02:07.999	0.051983
10:02:08.299	0.061062
10:02:08.699	0.066883
10:02:08.998	0.062053
10:02:09.399	0.043204
10:02:09.699	0.054153
10:02:10.099	0.052351
10:02:10.399	0.067350
10:02:10.799	0.066936
10:02:11.099	0.061559
10:02:11.499	0.056410
10:02:11.899	0.069831
10:02:12.199	0.070786
10:02:12.499	0.057971
10:02:12.899	0.054562
10:02:13.198	0.053570
10:02:13.598	0.059506
10:02:13.899	0.062438
10:02:14.299	0.067800
10:02:14.599	0.055055
10:02:14.998	0.045096
10:02:15.298	0.048843
10:02:15.699	0.064007
10:02:15.999	0.066547
10:02:16.398	0.061290
10:02:16.699	0.061262
10:02:17.099	0.067362
10:02:17.399	0.062624
10:02:17.799	0.043982
10:02:18.098	0.051458
10:02:18.398	0.048695
10:02:18.799	0.067479
10:02:19.099	0.040615
10:02:19.499	0.081396
10:02:19.799	0.082598
10:02:20.198	0.067616
10:02:20.499	0.064021
10:02:20.898	0.054071
10:02:21.199	0.055180
10:02:21.598	0.061331
10:02:21.899	0.073963
10:02:22.299	0.059449
10:02:22.599	0.057142
10:02:22.998	0.064244
10:02:23.299	0.059195
10:02:23.699	0.062974
10:02:23.999	0.063023
10:02:24.398	0.062331
10:02:24.698	0.057417
10:02:25.099	0.056107
10:02:25.399	0.059052
10:02:25.798	0.054743
10:02:26.099	0.053220
10:02:26.399	0.062857
10:02:26.798	0.054940
10:02:27.099	0.056775
10:02:27.498	0.062794
10:02:27.798	0.061795
10:02:28.199	0.075120
10:02:28.498	0.066969
10:02:28.899	0.062586
10:02:29.198	0.062361
10:02:29.599	0.064296
10:02:29.898	0.058530
10:02:30.299	0.065297
10:02:30.599	0.058974
10:02:30.999	0.056437
10:02:31.299	0.048361
10:02:31.699	0.055421
10:02:31.999	0.065069
10:02:32.399	0.060690
10:02:32.699	0.055828
10:02:33.099	0.058844
10:02:33.399	0.059425
10:02:33.799	0.053675
10:02:34.099	0.048149
10:02:34.499	0.061046
10:02:34.799	0.063204
10:02:35.100	0.070330
10:02:35.498	0.059801
10:02:35.798	0.053234
10:02:36.199	0.054794
10:02:36.498	0.059788
10:02:36.899	0.049354
10:02:37.199	0.051049
10:02:37.499	0.060481
10:02:37.898	0.063128
10:02:38.199	0.070164
10:02:38.499	0.062653
10:02:38.899	0.070794
10:02:39.199	0.057440
10:02:39.500	0.062424
10:02:39.898	0.057829
10:02:40.199	0.060900
10:02:40.499	0.069002
10:02:40.899	0.062058
10:02:41.199	0.078272
10:02:41.599	0.072025
10:02:41.899	0.069496
10:02:42.300	0.059286
10:02:42.599	0.067700
10:02:42.999	0.060915
10:02:43.299	0.064495
10:02:43.699	0.061931
10:02:43.999	0.068628
10:02:44.398	0.057855
10:02:44.699	0.059013
10:02:45.099	0.067841
10:02:45.399	0.062519
10:02:45.798	0.057471
10:02:46.098	0.057264
10:02:46.499	0.065568
10:02:46.799	0.066470
10:02:47.199	0.071039
10:02:47.498	0.055783
10:02:47.799	0.058669
10:02:48.199	0.053934
10:02:48.498	0.056145
10:02:48.899	0.060519
10:02:49.199	0.058546
10:02:49.599	0.065905
10:02:49.899	0.062976
10:02:50.299	0.067282
10:02:50.599	0.066726
10:02:50.999	0.060499
10:02:51.299	0.056701
10:02:51.699	0.054418
10:02:51.999	0.062674
10:02:52.399	0.066271
10:02:52.699	0.068004
10:02:53.099	0.065382
10:02:53.399	0.067337
10:02:53.799	0.059676
10:02:54.099	0.058211
10:02:54.499	0.066793
10:02:54.799	0.082104
10:02:55.199	0.057225
10:02:55.499	0.060500
10:02:55.899	0.067022
10:02:56.199	0.064232
10:02:56.599	0.071775
10:02:56.899	0.074238
10:02:57.299	0.061379
10:02:57.599	0.068513
10:02:57.999	0.069815
10:02:58.299	0.064493
10:02:58.699	0.074221
10:02:58.999	0.080266
10:02:59.399	0.070014
10:02:59.699	0.065001
10:03:00.099	0.063745
10:03:00.399	0.065948
10:03:00.700	0.063098
10:03:01.099	0.064816
10:03:01.399	0.066602
10:03:01.699	0.052515
10:03:02.099	0.055641
10:03:02.399	0.053672
10:03:02.799	0.063973
10:03:03.099	0.073042
10:03:03.499	0.067871
10:03:03.799	0.068819
10:03:04.200	0.082202
10:03:04.499	0.070651
10:03:04.899	0.074846
10:03:05.199	0.070718
10:03:05.599	0.077066
10:03:05.900	0.076283
10:03:06.299	0.067724
10:03:06.599	0.062036
10:03:06.899	0.063792
10:03:07.299	0.059454
10:03:07.599	0.069188
10:03:07.899	0.060880
10:03:08.299	0.069504
10:03:08.599	0.077586
10:03:08.899	0.078597
10:03:09.299	0.049845
10:03:09.599	0.071960
10:03:09.999	0.070888
10:03:10.299	0.063428
10:03:10.699	0.063348
10:03:10.999	0.072207
10:03:11.400	0.069890
10:03:11.699	0.069680
10:03:12.099	0.065526
10:03:12.399	0.068465
10:03:12.799	0.066368
10:03:13.099	0.066081
10:03:13.499	0.057776
10:03:13.799	0.061002
10:03:14.099	0.058176
10:03:14.499	0.071414
10:03:14.799	0.070641
10:03:15.199	0.061845
10:03:15.499	0.055721
10:03:15.800	0.057970
10:03:16.199	0.053925
10:03:16.499	0.066596
10:03:16.899	0.064827
10:03:17.200	0.061552
10:03:17.599	0.067655
10:03:17.899	0.075669
10:03:18.299	0.064523
10:03:18.599	0.058063
10:03:18.999	0.062968
10:03:19.299	0.070978
10:03:19.699	0.067338
10:03:19.999	0.059260
10:03:20.399	0.062604
10:03:20.700	0.062494
10:03:21.099	0.057947
10:03:21.400	0.066126
10:03:21.700	0.063919
10:03:22.099	0.056478
10:03:22.400	0.059930
10:03:22.699	0.058388
10:03:23.099	0.063146
10:03:23.399	0.068214
10:03:23.699	0.073400
10:03:24.099	0.077279
10:03:24.400	0.063608
10:03:24.699	0.064556
10:03:25.100	0.062552
10:03:25.399	0.065470
10:03:25.799	0.069133
10:03:26.099	0.070202
10:03:26.499	0.065150
10:03:26.800	0.070066
10:03:27.199	0.078483
10:03:27.500	0.066712
10:03:27.899	0.069174
10:03:28.200	0.075323
10:03:28.599	0.063039
10:03:28.899	0.057596
10:03:29.199	0.059079
10:03:29.599	0.067660
10:03:29.899	0.067517
10:03:30.299	0.068809
10:03:30.599	0.063464
10:03:30.899	0.067545
10:03:31.299	0.073322
10:03:31.600	0.069919
10:03:31.999	0.077282
10:03:32.300	0.070077
10:03:32.699	0.074491
10:03:33.000	0.071377
10:03:33.399	0.047983
10:03:33.699	0.048533
10:03:34.000	0.058014
10:03:34.400	0.080024
10:03:34.700	0.065372
10:03:35.100	0.063569
10:03:35.400	0.060835
10:03:35.800	0.090956
10:03:36.099	0.091273
10:03:36.499	0.074407
10:03:36.800	0.069409
10:03:37.100	0.068093
10:03:37.499	0.050193
10:03:37.800	0.047601
10:03:38.199	0.065627
10:03:38.500	0.077572
10:03:38.900	0.057596
10:03:39.200	0.056190
10:03:39.600	0.085011
10:03:39.900	0.060097
10:03:40.300	0.066358
10:03:40.599	0.066587
10:03:41.000	0.061809
10:03:41.300	0.062111
10:03:41.699	0.060919
10:03:42.001	0.065912
10:03:42.399	0.077523
10:03:42.699	0.064717
10:03:43.099	0.059733
10:03:43.399	0.056351
10:03:43.800	0.064740
10:03:44.099	0.063047
10:03:44.500	0.060176
10:03:44.800	0.043058
10:03:45.100	0.064267
10:03:45.500	0.058169
10:03:45.800	0.058930
10:03:46.099	0.035578
10:03:46.499	0.058331
10:03:46.799	0.070257
10:03:47.100	0.061476
10:03:47.500	0.070093
10:03:47.800	0.077811
10:03:48.200	0.060909
10:03:48.499	0.049066
10:03:48.900	0.068718
10:03:49.199	0.065042
10:03:49.600	0.071390
10:03:49.900	0.062394
10:03:50.300	0.058676
10:03:50.600	0.071080
10:03:50.900	0.071585
10:03:51.299	0.066496
10:03:51.600	0.055527
10:03:51.900	0.069741
10:03:52.299	0.055709
10:03:52.599	0.055159
10:03:53.000	0.057014
10:03:53.299	0.066405
10:03:53.699	0.048262
10:03:54.000	0.051588
10:03:54.399	0.062893
10:03:54.700	0.060889
10:03:55.099	0.066484
10:03:55.400	0.064459
10:03:55.799	0.039807
10:03:56.100	0.049942
10:03:56.499	0.068254
10:03:56.800	0.083496
10:03:57.200	0.059510
10:03:57.499	0.056827
10:03:57.900	0.052800
10:03:58.199	0.050194
10:03:58.599	0.060544
10:03:58.899	0.063294
10:03:59.200	0.060486
10:03:59.600	0.069591
10:03:59.899	0.064467
10:04:00.299	0.057040
10:04:00.599	0.056633
10:04:01.000	0.052385
10:04:01.300	0.058571
10:04:01.699	0.061626
10:04:02.000	0.052989
10:04:02.399	0.057633
10:04:02.700	0.055664
10:04:02.999	0.067098
10:04:03.399	0.047345
10:04:03.699	0.071173
10:04:04.000	0.061393
10:04:04.400	0.064269
10:04:04.700	0.057486
10:04:04.999	0.058415
10:04:05.400	0.063179
10:04:05.700	0.058083
10:04:06.099	0.052334
10:04:06.400	0.060548
10:04:06.799	0.063974
10:04:07.100	0.064934
10:04:07.500	0.073557
10:04:07.800	0.070650
10:04:08.199	0.063160
10:04:08.500	0.049281
10:04:08.899	0.053768
10:04:09.199	0.067212
10:04:09.600	0.060714
10:04:09.900	0.063069
10:04:10.200	0.075829
10:04:10.600	0.061520
10:04:10.899	0.054354
10:04:11.300	0.065132
10:04:11.599	0.052056
10:04:11.999	0.059128
10:04:12.299	0.058108
10:04:12.700	0.058299
10:04:12.999	0.063375
10:04:13.400	0.074685
10:04:13.700	0.064007
10:04:14.099	0.067570
10:04:14.400	0.081012
10:04:14.800	0.065186
10:04:15.101	0.062107
10:04:15.500	0.072371
10:04:15.800	0.065939
10:04:16.199	0.065524
10:04:16.500	0.079147
10:04:16.900	0.072624
10:04:17.200	0.071976
10:04:17.600	0.074320
10:04:17.900	0.056016
10:04:18.199	0.053233
10:04:18.600	0.051921
10:04:18.899	0.057280
10:04:19.199	0.062615
10:04:19.600	0.076052
10:04:19.899	0.064632
10:04:20.200	0.062211
10:04:20.599	0.055915
10:04:20.899	0.055251
10:04:21.300	0.063787
10:04:21.599	0.068521
10:04:21.999	0.061043
10:04:22.299	0.056831
10:04:22.700	0.061258
10:04:22.999	0.064630
10:04:23.400	0.063928
10:04:23.700	0.063061
10:04:24.100	0.065308
10:04:24.400	0.057191
10:04:24.800	0.038454
10:04:25.100	0.050293
10:04:25.500	0.075547
10:04:25.799	0.062107
10:04:26.200	0.067580
10:04:26.500	0.065275
10:04:26.899	0.065094
10:04:27.200	0.065455
10:04:27.600	0.051622
10:04:27.900	0.057441
10:04:28.300	0.069982
10:04:28.600	0.071851
10:04:29.000	0.060746
10:04:29.299	0.066264
10:04:29.700	0.063822
10:04:29.999	0.057485
10:04:30.399	0.042924
10:04:30.699	0.044571
10:04:31.100	0.059551
10:04:31.399	0.065206
10:04:31.800	0.076114
10:04:32.099	0.059609
10:04:32.400	0.059440
10:04:32.800	0.047504
10:04:33.100	0.053513
10:04:33.500	0.061634
10:04:33.800	0.058294
10:04:34.200	0.056490
10:04:34.500	0.057137
10:04:34.900	0.066968
10:04:35.200	0.071413
10:04:35.600	0.063232
10:04:35.899	0.077683
10:04:36.200	0.065093
10:04:36.600	0.054601
10:04:36.900	0.054617
10:04:37.300	0.069240
10:04:37.600	0.032835
10:04:38.000	0.048134
10:04:38.300	0.055279
10:04:38.699	0.062072
10:04:39.000	0.042468
10:04:39.400	0.052318
10:04:39.700	0.053268
10:04:40.099	0.047982
10:04:40.399	0.054854
10:04:40.800	0.049110
10:04:41.100	0.042010
10:04:41.400	0.044712
10:04:41.799	0.046513
10:04:42.100	0.049757
10:04:42.400	0.058001
10:04:42.800	0.049516
10:04:43.100	0.054307
10:04:43.500	0.060651
10:04:43.799	0.053784
10:04:44.199	0.051517
10:04:44.500	0.058550
10:04:44.900	0.065382
10:04:45.200	0.056809
10:04:45.600	0.069586
10:04:45.899	0.062711
10:04:46.300	0.071244
10:04:46.600	0.070483
10:04:47.000	0.051666
10:04:47.300	0.050826
10:04:47.700	0.056749
10:04:48.000	0.058637
10:04:48.300	0.055015
10:04:48.699	0.067698
10:04:48.999	0.058285
10:04:49.300	0.046813
10:04:49.700	0.056908
10:04:49.999	0.060121
10:04:50.300	0.062954
10:04:50.700	0.050790
10:04:51.000	0.044989
10:04:51.399	0.058648
10:04:51.700	0.064454
10:04:52.100	0.045185
10:04:52.399	0.051267
10:04:52.800	0.052325
10:04:53.100	0.055095
10:04:53.500	0.043187
10:04:53.799	0.050917
10:04:54.200	0.052022
10:04:54.499	0.045480
10:04:54.899	0.047233
10:04:55.199	0.052129
10:04:55.500	0.045229
10:04:55.899	0.046289
10:04:56.199	0.039538
10:04:56.500	0.045303
10:04:56.899	0.051741
10:04:57.200	0.057693
10:04:57.600	0.048968
10:04:57.899	0.050655
10:04:58.300	0.049379
10:04:58.600	0.042291
10:04:59.000	0.038412
10:04:59.300	0.043877
10:04:59.700	0.045651
10:05:00.100	0.049605
10:05:00.399	0.051265
10:05:00.800	0.044576
10:05:01.100	0.042771
10:05:01.500	0.039702
10:05:01.799	0.043802
10:05:02.200	0.041886
10:05:02.499	0.042241
10:05:02.900	0.053353
10:05:03.199	0.059690
10:05:03.600	0.042478
10:05:03.900	0.034809
10:05:04.299	0.036234
10:05:04.600	0.050767
10:05:05.000	0.048446
10:05:05.300	0.043899
10:05:05.600	0.056566
10:05:06.000	0.051194
10:05:06.300	0.048710
10:05:06.600	0.054439
10:05:07.000	0.050352
10:05:07.300	0.051852
10:05:07.700	0.039144
10:05:08.000	0.051468
10:05:08.400	0.059288
10:05:08.699	0.067541
10:05:09.100	0.068141
10:05:09.400	0.056455
10:05:09.799	0.052245
10:05:10.100	0.057723
10:05:10.399	0.044226
10:05:10.800	0.044163
10:05:11.100	0.047924
10:05:11.499	0.047683
10:05:11.800	0.045941
10:05:12.200	0.053442
10:05:12.600	0.055534
10:05:12.900	0.053350
10:05:13.300	0.045774
10:05:13.600	0.052183
10:05:14.000	0.058186
10:05:14.299	0.054619
10:05:14.700	0.049374
10:05:15.000	0.045277
10:05:15.400	0.037308
10:05:15.700	0.047361
10:05:16.100	0.050151
10:05:16.400	0.046390
10:05:16.700	0.048832
10:05:17.099	0.044330
10:05:17.399	0.038158
10:05:17.701	0.043959
10:05:18.100	0.055088
10:05:18.400	0.058139
10:05:18.799	0.049464
10:05:19.100	0.045609
10:05:19.499	0.049458
10:05:19.799	0.056480
10:05:20.200	0.051331
10:05:20.500	0.052492
10:05:20.901	0.043837
10:05:21.200	0.036385
10:05:21.600	0.044900
10:05:21.899	0.042056
10:05:22.300	0.042837
10:05:22.600	0.043080
10:05:23.000	0.038330
10:05:23.299	0.038557
10:05:23.700	0.041267
10:05:23.999	0.051630
10:05:24.399	0.047496
10:05:24.700	0.047429
10:05:25.100	0.034991
10:05:25.400	0.034438
10:05:25.800	0.039839
10:05:26.200	0.046244
10:05:26.500	0.046885
10:05:26.900	0.041806
10:05:27.200	0.045242
10:05:27.600	0.039313
10:05:27.900	0.040967
10:05:28.300	0.048983
10:05:28.600	0.055273
10:05:28.900	0.048106
10:05:29.299	0.026570
10:05:29.599	0.031943
10:05:29.999	0.060089
10:05:30.300	0.051605
10:05:30.599	0.051623
10:05:31.000	0.047015
10:05:31.300	0.044661
10:05:31.700	0.046441
10:05:31.999	0.044916
10:05:32.400	0.040300
10:05:32.700	0.043900
10:05:33.100	0.046789
10:05:33.399	0.045372
10:05:33.799	0.021087
10:05:34.100	0.040170
10:05:34.500	0.039151
10:05:34.799	0.038282
10:05:35.200	0.035845
10:05:35.500	0.054079
10:05:35.900	0.053579
10:05:36.200	0.044591
10:05:36.600	0.041620
10:05:36.900	0.060622
10:05:37.300	0.042081
10:05:37.600	0.041520
10:05:37.999	0.048617
10:05:38.300	0.052236
10:05:38.700	0.051130
10:05:39.000	0.046965
10:05:39.400	0.057118
10:05:39.700	0.062024
10:05:40.100	0.052154
10:05:40.400	0.054777
10:05:40.800	0.067714
10:05:41.100	0.054322
10:05:41.501	0.042990
10:05:41.800	0.052213
10:05:42.200	0.055741
10:05:42.500	0.053276
10:05:42.900	0.059861
10:05:43.200	0.059843
10:05:43.600	0.049726
10:05:43.900	0.049008
10:05:44.300	0.054456
10:05:44.600	0.060256
10:05:45.000	0.063411
10:05:45.300	0.060852
10:05:45.700	0.057302
10:05:46.000	0.053452
10:05:46.300	0.056823
10:05:46.700	0.056779
10:05:47.000	0.059297
10:05:47.399	0.056092
10:05:47.699	0.048943
10:05:48.100	0.052526
10:05:48.400	0.043941
10:05:48.800	0.057601
10:05:49.100	0.068587
10:05:49.500	0.048227
10:05:49.799	0.053910
10:05:50.200	0.055602
10:05:50.500	0.051043
10:05:50.900	0.044191
10:05:51.199	0.039399
10:05:51.500	0.057647
10:05:51.900	0.068613
10:05:52.300	0.061795
10:05:52.600	0.050831
10:05:52.999	0.050496
10:05:53.300	0.045854
10:05:53.700	0.048562
10:05:54.000	0.049209
10:05:54.400	0.042608
10:05:54.700	0.044598
10:05:54.999	0.052024
10:05:55.400	0.045219
10:05:55.700	0.046550
10:05:56.100	0.041362
10:05:56.400	0.034698
10:05:56.800	0.039159
10:05:57.100	0.041341
10:05:57.500	0.047173
10:05:57.799	0.056337
10:05:58.200	0.051662
10:05:58.500	0.044518
10:05:58.900	0.050478
10:05:59.200	0.046773
10:05:59.600	0.055434
10:05:59.899	0.052584
10:06:00.300	0.056406
10:06:00.600	0.061435
10:06:00.900	0.055500
10:06:01.301	0.044980
10:06:01.601	0.046138
10:06:01.999	0.041219
10:06:02.300	0.046917
10:06:02.700	0.053520
10:06:03.000	0.057018
10:06:03.400	0.049236
10:06:03.700	0.062505
10:06:04.100	0.047304
10:06:04.400	0.044138
10:06:04.700	0.054553
10:06:05.100	0.061104
10:06:05.400	0.068864
10:06:05.800	0.047234
10:06:06.100	0.051252
10:06:06.499	0.051511
10:06:06.800	0.053058
10:06:07.100	0.052266
10:06:07.500	0.049133
10:06:07.800	0.060871
10:06:08.200	0.057902
10:06:08.500	0.061825
10:06:08.900	0.057827
10:06:09.200	0.051955
10:06:09.600	0.052720
10:06:09.900	0.059274
10:06:10.200	0.064667
10:06:10.600	0.071787
10:06:10.900	0.074284
10:06:11.200	0.067064
10:06:11.600	0.069708
10:06:11.900	0.070866
10:06:12.300	0.067124
10:06:12.700	0.058448
10:06:13.000	0.071401
10:06:13.400	0.069447
10:06:13.700	0.071401
10:06:14.000	0.073932
10:06:14.400	0.077581
10:06:14.701	0.065874
10:06:15.000	0.062773
10:06:15.400	0.072616
10:06:15.700	0.067289
10:06:16.100	0.072720
10:06:16.400	0.071555
10:06:16.800	0.069392
10:06:17.101	0.059631
10:06:17.500	0.046524
10:06:17.800	0.046901
10:06:18.200	0.055757
10:06:18.600	0.066848
10:06:18.900	0.043518
10:06:19.300	0.047794
10:06:19.600	0.050931
10:06:19.901	0.046657
10:06:20.300	0.045400
10:06:20.600	0.050659
10:06:20.900	0.044695
10:06:21.300	0.051692
10:06:21.600	0.052508
10:06:21.900	0.047863
10:06:22.300	0.047218
10:06:22.600	0.044022
10:06:23.000	0.043444
10:06:23.301	0.041921
10:06:23.700	0.038148
10:06:24.000	0.039142
10:06:24.400	0.040118
10:06:24.700	0.040826
10:06:25.100	0.043041
10:06:25.401	0.037008
10:06:25.800	0.049875
10:06:26.100	0.038351
10:06:26.501	0.043340
10:06:26.800	0.048337
10:06:27.100	0.052084
10:06:27.501	0.048725
10:06:27.800	0.033528
10:06:28.101	0.028481
10:06:28.501	0.059920
10:06:28.801	0.045908
10:06:29.100	0.050730
10:06:29.500	0.050979
10:06:29.800	0.042088
10:06:30.200	0.049927
10:06:30.500	0.043542
10:06:30.900	0.052570
10:06:31.201	0.048381
10:06:31.600	0.046708
10:06:31.901	0.062866
10:06:32.301	0.062610
10:06:32.600	0.061425
10:06:33.000	0.046829
10:06:33.301	0.040872
10:06:33.701	0.041619
10:06:34.001	0.045108
10:06:34.401	0.041894
10:06:34.700	0.049386
10:06:35.101	0.052859
10:06:35.400	0.051933
10:06:35.800	0.049795
10:06:36.100	0.049212
10:06:36.500	0.056526
10:06:36.800	0.064272
10:06:37.201	0.046143
10:06:37.501	0.051939
10:06:37.900	0.043358
10:06:38.200	0.046020
10:06:38.601	0.044699
10:06:38.900	0.049251
10:06:39.301	0.041939
10:06:39.600	0.049109
10:06:40.001	0.043434
10:06:40.301	0.048463
10:06:40.700	0.046741
10:06:41.001	0.047601
10:06:41.300	0.045492
10:06:41.700	0.045818
10:06:42.001	0.044210
10:06:42.300	0.042057
10:06:42.700	0.039136
10:06:43.000	0.036302
10:06:43.300	0.041084
10:06:43.701	0.052506
10:06:44.001	0.060451
10:06:44.400	0.055041
10:06:44.701	0.057260
10:06:45.100	0.048178
10:06:45.400	0.041777
10:06:45.800	0.037099
10:06:46.101	0.043082
10:06:46.500	0.053821
10:06:46.801	0.051799
10:06:47.200	0.049202
10:06:47.501	0.052531
10:06:47.902	0.055740
10:06:48.201	0.058229
10:06:48.501	0.041624
10:06:48.901	0.040932
10:06:49.200	0.046694
10:06:49.501	0.044292
10:06:49.900	0.041586
10:06:50.200	0.039354
10:06:50.501	0.033801
10:06:50.900	0.050497
10:06:51.201	0.049098
10:06:51.601	0.046423
10:06:51.901	0.038154
10:06:52.300	0.033001
10:06:52.601	0.043041
10:06:53.001	0.046064
10:06:53.301	0.042560
10:06:53.700	0.044736
10:06:54.001	0.037990
10:06:54.301	0.040478
10:06:54.700	0.038956
10:06:55.001	0.027293
10:06:55.300	0.033405
10:06:55.700	0.037036
10:06:56.001	0.028635
10:06:56.301	0.031416
10:06:56.701	0.041770
10:06:57.000	0.037633
10:06:57.301	0.045453
10:06:57.701	0.036641
10:06:58.000	0.037584
10:06:58.400	0.043776
10:06:58.701	0.047913
10:06:59.100	0.043199
10:06:59.400	0.047661
10:06:59.801	0.039593
10:07:00.101	0.035721
10:07:00.501	0.038244
10:07:00.801	0.041965
10:07:01.201	0.033839
10:07:01.501	0.028243
10:07:01.900	0.035126
10:07:02.201	0.042243
10:07:02.501	0.042407
10:07:02.901	0.041574
10:07:03.201	0.036230
10:07:03.501	0.032440
10:07:03.900	0.032533
10:07:04.201	0.029259
10:07:04.600	0.036893
10:07:04.901	0.045160
10:07:05.301	0.040365
10:07:05.601	0.038927
10:07:06.000	0.045626
10:07:06.301	0.046796
10:07:06.701	0.034771
10:07:07.000	0.022417
10:07:07.401	0.042710
10:07:07.700	0.027592
10:07:08.100	0.030043
10:07:08.401	0.053296
10:07:08.801	0.042511
10:07:09.101	0.043180
10:07:09.501	0.042654
10:07:09.801	0.042642
10:07:10.201	0.045939
10:07:10.501	0.041991
10:07:10.900	0.042106
10:07:11.200	0.036947
10:07:11.501	0.040926
10:07:11.900	0.047888
10:07:12.200	0.037408
10:07:12.600	0.034204
10:07:13.001	0.037117
10:07:13.301	0.036412
10:07:13.601	0.038995
10:07:14.001	0.044680
10:07:14.300	0.040825
10:07:14.700	0.039309
10:07:15.001	0.029843
10:07:15.302	0.033468
10:07:15.700	0.039564
10:07:16.000	0.047297
10:07:16.400	0.044043
10:07:16.700	0.031825
10:07:17.101	0.046662
10:07:17.401	0.042185
10:07:17.701	0.043630
10:07:18.101	0.044209
10:07:18.400	0.037498
10:07:18.801	0.036831
10:07:19.101	0.045991
10:07:19.401	0.051130
10:07:19.800	0.048391
10:07:20.101	0.050460
10:07:20.401	0.046103
10:07:20.801	0.033831
10:07:21.100	0.036539
10:07:21.501	0.018563
10:07:21.801	0.021495
10:07:22.200	0.033910
10:07:22.501	0.046447
10:07:22.801	0.044032
10:07:23.200	0.041393
10:07:23.501	0.038358
10:07:23.901	0.026822
10:07:24.201	0.035692
10:07:24.601	0.033678
10:07:24.901	0.027369
10:07:25.301	0.039098
10:07:25.601	0.039307
10:07:26.001	0.032395
10:07:26.300	0.027726
10:07:26.700	0.037710
10:07:27.001	0.038964
10:07:27.400	0.034447
10:07:27.701	0.034764
10:07:28.101	0.031142
10:07:28.401	0.026514
10:07:28.801	0.022515
10:07:29.100	0.040601
10:07:29.501	0.038334
10:07:29.801	0.024558
10:07:30.201	0.034880
10:07:30.501	0.037778
10:07:30.901	0.035995
10:07:31.200	0.037197
10:07:31.601	0.040711
10:07:31.900	0.030234
10:07:32.301	0.031131
10:07:32.601	0.021654
10:07:33.000	0.024200
10:07:33.301	0.026353
10:07:33.601	0.031463
10:07:34.001	0.041170
10:07:34.300	0.028203
10:07:34.601	0.024448
10:07:35.001	0.035424
10:07:35.301	0.037289
10:07:35.701	0.031115
10:07:36.001	0.027259
10:07:36.401	0.034757
10:07:36.701	0.023478
10:07:37.100	0.036792
10:07:37.401	0.035600
10:07:37.801	0.045132
10:07:38.100	0.021912
10:07:38.501	0.022455
10:07:38.801	0.037679
10:07:39.201	0.033759
10:07:39.501	0.040321
10:07:39.801	0.041947
10:07:40.200	0.030105
10:07:40.501	0.025367
10:07:40.900	0.026005
10:07:41.202	0.040772
10:07:41.600	0.026573
10:07:41.901	0.018459
10:07:42.301	0.031140
10:07:42.601	0.039166
10:07:43.001	0.036662
10:07:43.301	0.032640
10:07:43.701	0.033970
10:07:44.000	0.029234
10:07:44.400	0.030770
10:07:44.701	0.039501
10:07:45.101	0.046445
10:07:45.401	0.039726
10:07:45.801	0.031813
10:07:46.101	0.032367
10:07:46.501	0.033113
10:07:46.801	0.032398
10:07:47.200	0.032387
10:07:47.501	0.040775
10:07:47.801	0.033997
10:07:48.201	0.045285
10:07:48.500	0.025440
10:07:48.901	0.032002
10:07:49.200	0.033912
10:07:49.601	0.039097
10:07:49.900	0.045862
10:07:50.301	0.040056
10:07:50.601	0.039913
10:07:51.000	0.036045
10:07:51.300	0.029567
10:07:51.601	0.046283
10:07:52.001	0.024610
10:07:52.301	0.034066
10:07:52.601	0.029920
10:07:53.000	0.027723
10:07:53.301	0.032540
10:07:53.601	0.043440
10:07:54.001	0.040558
10:07:54.301	0.039197
10:07:54.701	0.026150
10:07:55.001	0.038254
10:07:55.401	0.035440
10:07:55.701	0.035457
10:07:56.101	0.033581
10:07:56.401	0.033848
10:07:56.800	0.046804
10:07:57.101	0.040003
10:07:57.500	0.030235
10:07:57.800	0.043042
10:07:58.202	0.037647
10:07:58.500	0.037810
10:07:58.902	0.045853
10:07:59.201	0.027442
10:07:59.601	0.047806
10:07:59.901	0.057917
10:08:00.301	0.050060
10:08:00.602	0.034133
10:08:00.901	0.031690
10:08:01.301	0.037391
10:08:01.601	0.037219
10:08:02.000	0.033651
10:08:02.301	0.036048
10:08:02.700	0.038224
10:08:03.000	0.038378
10:08:03.401	0.047723
10:08:03.701	0.039777
10:08:04.100	0.041720
10:08:04.400	0.045479
10:08:04.801	0.047643
10:08:05.100	0.053727
10:08:05.501	0.056554
10:08:05.801	0.049062
10:08:06.201	0.051722
10:08:06.501	0.061829
10:08:06.900	0.067473
10:08:07.201	0.045928
10:08:07.601	0.053021
10:08:07.901	0.066943
10:08:08.201	0.060592
10:08:08.600	0.070701
10:08:08.901	0.073955
10:08:09.201	0.069157
10:08:09.601	0.072857
10:08:09.901	0.061607
10:08:10.300	0.069412
10:08:10.601	0.067356
10:08:11.001	0.073016
10:08:11.300	0.065377
10:08:11.700	0.067550
10:08:12.001	0.077147
10:08:12.401	0.086438
10:08:12.701	0.079419
10:08:13.101	0.087449
10:08:13.400	0.104865
10:08:13.800	0.085257
10:08:14.100	0.090841
10:08:14.501	0.107759
10:08:14.802	0.100048
10:08:15.201	0.121182
10:08:15.501	0.122392
10:08:15.901	0.128463
10:08:16.202	0.135409
10:08:16.601	0.131590
10:08:16.901	0.119927
10:08:17.301	0.135988
10:08:17.601	0.139127
10:08:18.001	0.121854
10:08:18.301	0.134342
10:08:18.700	0.125065
10:08:19.001	0.119275
10:08:19.401	0.144735
10:08:19.701	0.130946
10:08:20.101	0.151425
10:08:20.401	0.142358
10:08:20.800	0.143265
10:08:21.100	0.123692
10:08:21.501	0.124813
10:08:21.800	0.124502
10:08:22.200	0.139349
10:08:22.501	0.136422
10:08:22.801	0.128942
10:08:23.201	0.115914
10:08:23.501	0.140723
10:08:23.900	0.122489
10:08:24.200	0.134235
10:08:24.601	0.131838
10:08:24.900	0.139054
10:08:25.300	0.120710
10:08:25.601	0.106627
10:08:26.000	0.106021
10:08:26.301	0.110811
10:08:26.701	0.105298
10:08:27.001	0.117795
10:08:27.401	0.103859
10:08:27.701	0.102940
10:08:28.101	0.092751
10:08:28.401	0.094029
10:08:28.800	0.099414
10:08:29.100	0.102456
10:08:29.501	0.093915
10:08:29.801	0.092100
10:08:30.101	0.083588
10:08:30.501	0.085641
10:08:30.801	0.072272
10:08:31.200	0.066294
10:08:31.501	0.083542
10:08:31.901	0.081551
10:08:32.200	0.066705
10:08:32.601	0.064922
10:08:32.901	0.064898
10:08:33.301	0.068210
10:08:33.600	0.071562
10:08:34.000	0.060993
10:08:34.301	0.073355
10:08:34.700	0.073009
10:08:35.001	0.072077
10:08:35.401	0.067889
10:08:35.701	0.068983
10:08:36.101	0.073441
10:08:36.401	0.067180
10:08:36.801	0.060508
10:08:37.101	0.073938
10:08:37.500	0.065246
10:08:37.801	0.064968
10:08:38.101	0.062749
10:08:38.501	0.064796
10:08:38.801	0.060626
10:08:39.101	0.064893
10:08:39.501	0.069230
10:08:39.801	0.070760
10:08:40.101	0.078269
10:08:40.501	0.075451
10:08:40.801	0.061942
10:08:41.201	0.070319
10:08:41.501	0.068217
10:08:41.901	0.084502
10:08:42.201	0.076870
10:08:42.601	0.086184
10:08:42.902	0.093958
10:08:43.301	0.093454
10:08:43.601	0.097690
10:08:43.901	0.089891
10:08:44.300	0.096706
10:08:44.601	0.096478
10:08:44.901	0.084116
10:08:45.301	0.089116
10:08:45.600	0.086946
10:08:46.001	0.099157
10:08:46.301	0.104578
10:08:46.701	0.103262
10:08:47.001	0.105303
10:08:47.401	0.107024
10:08:47.701	0.109363
10:08:48.101	0.136475
10:08:48.401	0.139010
10:08:48.801	0.136325
10:08:49.100	0.129311
10:08:49.501	0.148306
10:08:49.801	0.144143
10:08:50.200	0.150775
10:08:50.501	0.170980
10:08:50.900	0.181929
10:08:51.201	0.181970
10:08:51.601	0.208125
10:08:51.900	0.215224
10:08:52.301	0.230838
10:08:52.601	0.229425
10:08:53.001	0.232734
10:08:53.301	0.252012
10:08:53.701	0.282716
10:08:54.001	0.317196
10:08:54.401	0.326815
10:08:54.701	0.334544
10:08:55.101	0.360624
10:08:55.501	0.381723
10:08:55.801	0.404917
10:08:56.100	0.424293
10:08:56.501	0.457175
10:08:56.800	0.493116
10:08:57.101	0.519054
10:08:57.501	0.530093
10:08:57.801	0.607270
10:08:58.101	0.611641
10:08:58.501	0.647609
10:08:58.801	0.712254
10:08:59.201	0.806416
10:08:59.501	0.830903
10:08:59.901	0.921503
10:09:00.201	0.903406
10:09:00.601	0.999585
10:09:00.900	1.034009
10:09:01.301	1.107664
10:09:01.601	1.101376
10:09:02.001	1.121328
10:09:02.301	1.209075
10:09:02.701	1.239443
10:09:03.001	1.208359
10:09:03.301	1.242085
10:09:03.701	1.267764
10:09:04.001	1.251199
10:09:04.301	1.216211
10:09:04.701	1.227897
10:09:05.001	1.248034
10:09:05.301	1.296655
10:09:05.700	1.289797
10:09:06.001	1.284311
10:09:06.301	1.256722
10:09:06.701	1.232524
10:09:07.001	1.268612
10:09:07.401	1.255311
10:09:07.701	1.248692
10:09:08.101	1.214976
10:09:08.401	1.204593
10:09:08.801	1.198324
10:09:09.101	1.159786
10:09:09.501	1.125991
10:09:09.801	1.093793
10:09:10.201	1.086879
10:09:10.501	1.045139
10:09:10.901	1.025852
10:09:11.201	1.034713
10:09:11.601	0.926903
10:09:11.901	0.898211
10:09:12.301	0.849878
10:09:12.601	0.820631
10:09:13.001	0.791334
10:09:13.401	0.739769
10:09:13.702	0.705921
10:09:14.101	0.645404
10:09:14.401	0.569226
10:09:14.801	0.528729
10:09:15.101	0.501838
10:09:15.501	0.470889
10:09:15.801	0.434425
10:09:16.201	0.404189
10:09:16.501	0.362259
10:09:16.901	0.337934
10:09:17.201	0.310494
10:09:17.601	0.297556
10:09:17.901	0.257577
10:09:18.201	0.246659
10:09:18.601	0.248696
10:09:18.901	0.237684
10:09:19.301	0.203435
10:09:19.601	0.205156
10:09:20.002	0.194176
10:09:20.301	0.190519
10:09:20.701	0.170046
10:09:21.001	0.168425
10:09:21.401	0.169262
10:09:21.701	0.156068
10:09:22.101	0.140263
10:09:22.401	0.138673
10:09:22.801	0.130270
10:09:23.101	0.127895
10:09:23.501	0.123475
10:09:23.801	0.107930
10:09:24.201	0.108798
10:09:24.501	0.110681
10:09:24.901	0.116807
10:09:25.201	0.102354
10:09:25.501	0.096878
10:09:25.901	0.088311
10:09:26.201	0.098896
10:09:26.501	0.100719
10:09:26.902	0.093173
10:09:27.201	0.083054
10:09:27.502	0.082764
10:09:27.901	0.084438
10:09:28.202	0.069593
10:09:28.601	0.070732
10:09:28.901	0.069895
10:09:29.201	0.069714
10:09:29.602	0.060957
10:09:29.901	0.064025
10:09:30.302	0.073567
10:09:30.602	0.060030
10:09:31.001	0.068752
10:09:31.302	0.052231
10:09:31.701	0.058683
10:09:32.002	0.057769
10:09:32.302	0.058431
10:09:32.702	0.055981
10:09:33.001	0.057629
10:09:33.401	0.058535
10:09:33.701	0.051728
10:09:34.002	0.051579
10:09:34.401	0.034402
10:09:34.702	0.048183
10:09:35.102	0.068840
10:09:35.402	0.055501
10:09:35.801	0.060150
10:09:36.101	0.055004
10:09:36.401	0.056103
10:09:36.801	0.045953
10:09:37.101	0.042060
10:09:37.502	0.042872
10:09:37.802	0.041015
10:09:38.201	0.049439
10:09:38.502	0.054398
10:09:38.902	0.053280
10:09:39.201	0.043079
10:09:39.601	0.048246
10:09:39.902	0.048309
10:09:40.301	0.054368
10:09:40.601	0.043814
10:09:41.001	0.053666
10:09:41.301	0.044876
10:09:41.602	0.048370
10:09:42.002	0.048958
10:09:42.301	0.051365
10:09:42.701	0.059262
10:09:43.001	0.048502
10:09:43.302	0.047048
10:09:43.702	0.038579
10:09:44.002	0.043336
10:09:44.402	0.051746
10:09:44.701	0.050299
10:09:45.102	0.051571
10:09:45.401	0.055075
10:09:45.801	0.046992
10:09:46.102	0.049142
10:09:46.502	0.050717
10:09:46.802	0.051236
10:09:47.102	0.054889
10:09:47.502	0.050484
10:09:47.902	0.047321
10:09:48.201	0.049907
10:09:48.502	0.046080
10:09:48.902	0.057640
10:09:49.202	0.055493
10:09:49.601	0.032131
10:09:49.902	0.047659
10:09:50.301	0.065646
10:09:50.602	0.069328
10:09:51.001	0.068757
10:09:51.302	0.064836
10:09:51.702	0.065542
10:09:52.002	0.062356
10:09:52.302	0.061403
10:09:52.702	0.066052
10:09:53.001	0.067419
10:09:53.402	0.068696
10:09:53.702	0.060547
10:09:54.101	0.051148
10:09:54.403	0.053302
10:09:54.802	0.058853
10:09:55.102	0.064007
10:09:55.401	0.054939
10:09:55.802	0.053659
10:09:56.102	0.058268
10:09:56.402	0.065387
10:09:56.801	0.052717
10:09:57.101	0.048335
10:09:57.402	0.046327
10:09:57.802	0.045165
10:09:58.102	0.051746
10:09:58.502	0.056502
10:09:58.802	0.055600