Chart Recorder Data File Mon, Sep 23, 2024 10:32 AM
Time (s)	CH1 (V)  
10:22:14.906	0.024115
10:22:15.706	0.022645
10:22:16.006	0.032091
10:22:16.305	0.033478
10:22:16.705	0.027470
10:22:17.005	0.031130
10:22:17.406	0.030046
10:22:17.706	0.044348
10:22:18.106	0.031542
10:22:18.406	0.037734
10:22:18.806	0.026378
10:22:19.105	0.025343
10:22:19.406	0.025257
10:22:19.806	0.026229
10:22:20.106	0.017710
10:22:20.405	0.028189
10:22:20.806	0.021834
10:22:21.105	0.017930
10:22:21.406	0.025026
10:22:21.805	0.049041
10:22:22.106	0.039293
10:22:22.506	0.026580
10:22:22.805	0.028907
10:22:23.205	0.024476
10:22:23.505	0.017119
10:22:23.806	0.018676
10:22:24.206	0.059419
10:22:24.506	0.051117
10:22:24.906	0.028388
10:22:25.206	0.013177
10:22:25.605	0.026402
10:22:25.905	0.027710
10:22:26.205	0.039605
10:22:26.606	0.020445
10:22:26.906	0.042398
10:22:27.306	0.025131
10:22:27.606	0.027099
10:22:28.006	-0.002988
10:22:28.305	0.004337
10:22:28.705	0.011466
10:22:29.006	0.022558
10:22:29.405	0.038636
10:22:29.706	0.026273
10:22:30.105	0.026743
10:22:30.406	0.027069
10:22:30.805	0.023973
10:22:31.106	0.027907
10:22:31.505	0.028276
10:22:31.806	0.032117
10:22:32.206	0.041759
10:22:32.506	0.021746
10:22:32.906	0.012474
10:22:33.206	0.023528
10:22:33.606	0.028338
10:22:33.905	0.028771
10:22:34.205	0.022611
10:22:34.606	0.026919
10:22:34.906	0.028031
10:22:35.306	0.042364
10:22:35.606	0.040950
10:22:36.005	0.033016
10:22:36.305	0.028545
10:22:36.706	0.013306
10:22:37.005	0.029763
10:22:37.405	0.030508
10:22:37.706	0.033218
10:22:38.106	0.023959
10:22:38.406	0.025743
10:22:38.805	0.029407
10:22:39.106	0.030771
10:22:39.406	0.034499
10:22:39.805	0.040468
10:22:40.106	0.040019
10:22:40.406	0.039042
10:22:40.806	0.049108
10:22:41.105	0.075658
10:22:41.406	0.142417
10:22:41.806	0.337462
10:22:42.105	0.491058
10:22:42.406	0.975622
10:22:42.805	1.568165
10:22:43.106	1.973622
10:22:43.507	3.887962
10:22:44.806	3.633156
10:22:45.106	3.380767
10:22:45.506	2.800112
10:22:45.806	2.124682
10:22:46.206	0.223624
10:22:47.506	0.086215
10:22:47.805	0.066055
10:22:48.205	0.038620
10:22:48.506	0.032735
10:22:48.905	0.040013
10:22:49.206	0.029461
10:22:49.505	0.026965
10:22:49.906	0.027043
10:22:50.206	0.022524
10:22:50.505	0.022226
10:22:50.906	0.024676
10:22:51.205	0.027768
10:22:51.505	0.021562
10:22:51.905	0.028844
10:22:52.205	0.031793
10:22:52.606	0.027473
10:22:52.906	0.029827
10:22:53.306	0.037716
10:22:53.605	0.021635
10:22:54.006	0.039071
10:22:54.306	0.034070
10:22:54.705	0.024162
10:22:55.006	0.023344
10:22:55.406	0.028753
10:22:55.706	0.028578
10:22:56.106	0.028964
10:22:56.407	0.019203
10:22:56.706	0.027716
10:22:57.106	0.034238
10:22:57.406	0.044230
10:22:57.806	0.035243
10:22:58.106	0.004813
10:22:58.506	0.018168
10:22:58.805	0.021562
10:22:59.206	0.023678
10:22:59.506	0.018886
10:22:59.906	0.015349
10:23:00.206	0.018977
10:23:00.606	0.037483
10:23:00.906	0.041235
10:23:01.305	0.013837
10:23:01.605	0.016477
10:23:02.006	0.018682
10:23:02.305	0.028345
10:23:02.605	0.024978
10:23:03.005	0.031509
10:23:03.306	0.027886
10:23:03.605	0.035266
10:23:04.006	0.023303
10:23:04.306	0.025671
10:23:04.606	0.021868
10:23:05.006	0.020263
10:23:05.306	0.018066
10:23:05.706	0.021549
10:23:06.006	0.040290
10:23:06.406	0.032516
10:23:06.706	0.032307
10:23:07.106	0.024182
10:23:07.406	0.009932
10:23:07.805	0.017929
10:23:08.105	0.022230
10:23:08.406	0.041356
10:23:08.805	0.016916
10:23:09.106	0.019154
10:23:09.506	0.029884
10:23:09.806	0.023314
10:23:10.205	0.031623
10:23:10.506	0.023218
10:23:10.806	0.021025
10:23:11.206	0.016208
10:23:11.505	0.041408
10:23:11.806	0.034302
10:23:12.206	0.029437
10:23:12.506	0.027917
10:23:12.906	0.024321
10:23:13.206	0.023921
10:23:13.606	0.026997
10:23:13.906	0.024091
10:23:14.306	0.032690
10:23:14.605	0.025568
10:23:15.006	0.020460
10:23:15.306	0.027084
10:23:15.706	0.017648
10:23:16.006	0.020496
10:23:16.405	0.022602
10:23:16.706	0.020067
10:23:17.105	0.020072
10:23:17.406	0.015422
10:23:17.706	0.025289
10:23:18.105	0.029350
10:23:18.406	0.030829
10:23:18.706	0.028076
10:23:19.106	0.032861
10:23:19.406	0.020512
10:23:19.805	0.027357
10:23:20.105	0.023510
10:23:20.506	0.028958
10:23:20.805	0.016846
10:23:21.205	0.014355
10:23:21.505	0.018399
10:23:21.905	0.018945
10:23:22.206	0.019644
10:23:22.505	0.026642
10:23:22.906	0.022655
10:23:23.206	0.026490
10:23:23.606	0.029117
10:23:23.905	0.033415
10:23:24.306	0.042874
10:23:24.606	0.027350
10:23:24.906	0.027043
10:23:25.305	0.028611
10:23:25.606	0.044741
10:23:25.905	0.049081
10:23:26.306	0.049397
10:23:26.605	0.053186
10:23:27.006	0.065303
10:23:27.306	0.070810
10:23:27.705	0.083973
10:23:28.006	0.083336
10:23:28.405	0.093531
10:23:28.706	0.104717
10:23:29.006	0.121606
10:23:29.405	0.131148
10:23:29.706	0.142453
10:23:30.106	0.128305
10:23:30.406	0.129783
10:23:30.706	0.164516
10:23:31.105	0.153430
10:23:31.406	0.146297
10:23:31.806	0.161356
10:23:32.106	0.163009
10:23:32.505	0.160348
10:23:32.806	0.167542
10:23:33.205	0.173362
10:23:33.506	0.169286
10:23:33.806	0.203196
10:23:34.206	0.220548
10:23:34.506	0.258572
10:23:34.906	0.261527
10:23:35.205	0.267702
10:23:35.606	0.289866
10:23:35.906	0.287987
10:23:36.306	0.305710
10:23:36.607	0.303805
10:23:36.906	0.283373
10:23:37.306	0.266992
10:23:37.606	0.266736
10:23:37.906	0.245824
10:23:38.306	0.230535
10:23:38.606	0.199888
10:23:38.905	0.205182
10:23:39.305	0.178204
10:23:39.606	0.195719
10:23:39.906	0.193413
10:23:40.306	0.186630
10:23:40.605	0.172751
10:23:41.006	0.171436
10:23:41.306	0.171047
10:23:41.606	0.158401
10:23:42.005	0.178975
10:23:42.306	0.174434
10:23:42.705	0.158502
10:23:43.006	0.153726
10:23:43.406	0.152177
10:23:43.706	0.156076
10:23:44.106	0.162732
10:23:44.405	0.160556
10:23:44.805	0.160957
10:23:45.105	0.157340
10:23:45.506	0.159628
10:23:45.806	0.155376
10:23:46.206	0.162208
10:23:46.506	0.148425
10:23:46.805	0.150438
10:23:47.205	0.144363
10:23:47.507	0.140219
10:23:47.906	0.146153
10:23:48.205	0.149304
10:23:48.506	0.165740
10:23:48.906	0.155827
10:23:49.206	0.133538
10:23:49.605	0.127749
10:23:49.906	0.139752
10:23:50.306	0.136643
10:23:50.606	0.152876
10:23:50.906	0.145318
10:23:51.305	0.144801
10:23:51.607	0.149195
10:23:51.906	0.154417
10:23:52.305	0.165266
10:23:52.606	0.158694
10:23:52.906	0.152935
10:23:53.305	0.153919
10:23:53.606	0.161146
10:23:53.905	0.178541
10:23:54.306	0.143946
10:23:54.606	0.138104
10:23:55.006	0.128872
10:23:55.306	0.128256
10:23:55.606	0.126668
10:23:56.006	0.145446
10:23:56.406	0.142335
10:23:56.706	0.128332
10:23:57.005	0.110203
10:23:57.405	0.104339
10:23:57.706	0.106310
10:23:58.006	0.099269
10:23:58.406	0.096387
10:23:58.706	0.095718
10:23:59.006	0.091114
10:23:59.405	0.081525
10:23:59.706	0.085482
10:24:00.106	0.084891
10:24:00.406	0.078356
10:24:00.805	0.089620
10:24:01.106	0.083193
10:24:01.406	0.083539
10:24:01.806	0.075762
10:24:02.106	0.077355
10:24:02.506	0.069892
10:24:02.806	0.067816
10:24:03.205	0.061255
10:24:03.505	0.062681
10:24:03.906	0.059056
10:24:04.206	0.057482
10:24:04.606	0.059810
10:24:04.906	0.065038
10:24:05.306	0.051993
10:24:05.606	0.053873
10:24:06.006	0.049154
10:24:06.306	0.058906
10:24:06.706	0.052363
10:24:07.006	0.056851
10:24:07.406	0.057821
10:24:07.706	0.059357
10:24:08.006	0.057043
10:24:08.406	0.061560
10:24:08.706	0.058713
10:24:09.106	0.073665
10:24:09.406	0.059386
10:24:09.806	0.046027
10:24:10.106	0.052358
10:24:10.506	0.068683
10:24:10.806	0.068608
10:24:11.206	0.058489
10:24:11.506	0.066557
10:24:11.906	0.072524
10:24:12.205	0.064876
10:24:12.605	0.075267
10:24:12.906	0.070657
10:24:13.206	0.075161
10:24:13.606	0.079690
10:24:13.906	0.090210
10:24:14.206	0.083461
10:24:14.606	0.061367
10:24:14.905	0.062840
10:24:15.206	0.054039
10:24:15.606	0.073764
10:24:15.906	0.062058
10:24:16.206	0.067733
10:24:16.605	0.058578
10:24:16.905	0.065747
10:24:17.205	0.067579
10:24:17.606	0.057956
10:24:17.906	0.063885
10:24:18.206	0.059730
10:24:18.606	0.072381
10:24:18.905	0.084292
10:24:19.306	0.116718
10:24:19.606	0.133408
10:24:20.006	0.150548
10:24:20.306	0.186826
10:24:20.706	0.240150
10:24:21.005	0.222056
10:24:21.306	0.200801
10:24:21.705	0.198860
10:24:22.006	0.187409
10:24:22.406	0.167220
10:24:22.706	0.158712
10:24:23.106	0.123241
10:24:23.406	0.115186
10:24:23.806	0.096492
10:24:24.106	0.107040
10:24:24.506	0.107611
10:24:24.806	0.092311
10:24:25.206	0.099394
10:24:25.506	0.100822
10:24:25.905	0.089668
10:24:26.206	0.096911
10:24:26.606	0.088645
10:24:26.906	0.076368
10:24:27.306	0.074392
10:24:27.606	0.070420
10:24:28.006	0.073284
10:24:28.306	0.065939
10:24:28.705	0.059868
10:24:29.006	0.062669
10:24:29.306	0.059095
10:24:29.706	0.054450
10:24:30.006	0.055797
10:24:30.406	0.064735
10:24:30.706	0.055474
10:24:31.006	0.061485
10:24:31.406	0.068996
10:24:31.706	0.071380
10:24:32.106	0.070633
10:24:32.406	0.075321
10:24:32.806	0.069497
10:24:33.106	0.071028
10:24:33.506	0.070971
10:24:33.806	0.076844
10:24:34.206	0.074572
10:24:34.506	0.088672
10:24:34.906	0.088025
10:24:35.206	0.082861
10:24:35.606	0.076521
10:24:35.906	0.075664
10:24:36.206	0.065951
10:24:36.606	0.072068
10:24:36.906	0.079835
10:24:37.206	0.068375
10:24:37.606	0.079280
10:24:37.906	0.085031
10:24:38.206	0.069874
10:24:38.606	0.053348
10:24:38.906	0.062534
10:24:39.305	0.085397
10:24:39.605	0.068707
10:24:40.006	0.072841
10:24:40.306	0.060541
10:24:40.706	0.066285
10:24:41.006	0.062077
10:24:41.406	0.056149
10:24:41.706	0.059309
10:24:42.006	0.059880
10:24:42.406	0.049203
10:24:42.706	0.060283
10:24:43.006	0.059583
10:24:43.407	0.061652
10:24:43.706	0.052710
10:24:44.006	0.050550
10:24:44.406	0.052172
10:24:44.706	0.059701
10:24:45.106	0.058631
10:24:45.406	0.059328
10:24:45.807	0.071424
10:24:46.106	0.059547
10:24:46.506	0.060381
10:24:46.806	0.060335
10:24:47.107	0.065309
10:24:47.507	0.064401
10:24:47.806	0.076184
10:24:48.207	0.067446
10:24:48.506	0.050795
10:24:48.906	0.051818
10:24:49.206	0.055038
10:24:49.607	0.051153
10:24:49.907	0.043094
10:24:50.206	0.046864
10:24:50.606	0.039588
10:24:50.906	0.053984
10:24:51.206	0.026675
10:24:51.606	0.048472
10:24:51.907	0.043305
10:24:52.206	0.037427
10:24:52.606	0.041006
10:24:52.906	0.045407
10:24:53.306	0.029693
10:24:53.606	0.045367
10:24:54.006	0.048052
10:24:54.307	0.050113
10:24:54.607	0.042864
10:24:55.006	0.019969
10:24:55.306	0.033178
10:24:55.706	0.047917
10:24:56.007	0.056032
10:24:56.406	0.055980
10:24:56.707	0.056184
10:24:57.106	0.044504
10:24:57.406	0.050687
10:24:57.806	0.046944
10:24:58.106	0.038387
10:24:58.406	0.037714
10:24:58.806	0.044098
10:24:59.106	0.042482
10:24:59.406	0.046772
10:24:59.806	0.047077
10:25:00.106	0.029446
10:25:00.507	0.033090
10:25:00.807	0.038523
10:25:01.207	0.038290
10:25:01.507	0.035718
10:25:01.906	0.031604
10:25:02.206	0.034810
10:25:02.607	0.036171
10:25:02.906	0.038017
10:25:03.207	0.038953
10:25:03.606	0.039512
10:25:03.907	0.036405
10:25:04.206	0.033100
10:25:04.607	0.029550
10:25:04.906	0.037098
10:25:05.207	0.048656
10:25:05.606	0.034052
10:25:05.906	0.026334
10:25:06.206	0.030889
10:25:06.606	0.026616
10:25:06.906	0.028349
10:25:07.306	0.030312
10:25:07.606	0.028826
10:25:08.007	0.035340
10:25:08.306	0.037184
10:25:08.706	0.040755
10:25:09.007	0.029089
10:25:09.407	0.039004
10:25:09.706	0.037609
10:25:10.107	0.027533
10:25:10.407	0.026758
10:25:10.806	0.017096
10:25:11.106	0.018308
10:25:11.406	0.036874
10:25:11.807	0.036848
10:25:12.106	0.037708
10:25:12.407	0.034306
10:25:12.807	0.038365
10:25:13.106	0.044835
10:25:13.407	0.040012
10:25:13.806	0.024456
10:25:14.106	0.025457
10:25:14.507	0.037316
10:25:14.807	0.034768
10:25:15.207	0.027533
10:25:15.506	0.051842
10:25:15.907	0.029547
10:25:16.207	0.029305
10:25:16.607	0.039234
10:25:16.906	0.032687
10:25:17.207	0.030693
10:25:17.607	0.028470
10:25:17.906	0.032263
10:25:18.207	0.038322
10:25:18.607	0.042834
10:25:18.906	0.036938
10:25:19.206	0.030318
10:25:19.606	0.034102
10:25:19.908	0.044561
10:25:20.207	0.038184
10:25:20.606	0.025581
10:25:20.906	0.025818
10:25:21.307	0.024455
10:25:21.607	0.038106
10:25:22.007	0.038329
10:25:22.307	0.041829
10:25:22.706	0.030600
10:25:23.007	0.031510
10:25:23.406	0.040142
10:25:23.707	0.034712
10:25:24.107	0.037251
10:25:24.406	0.029125
10:25:24.807	0.026500
10:25:25.106	0.025565
10:25:25.407	0.036206
10:25:25.807	0.043331
10:25:26.107	0.040297
10:25:26.506	0.030562
10:25:26.807	0.040059
10:25:27.107	0.037602
10:25:27.507	0.031254
10:25:27.807	0.030825
10:25:28.206	0.036166
10:25:28.507	0.040229
10:25:28.907	0.033042
10:25:29.206	0.026347
10:25:29.507	0.036563
10:25:29.906	0.029631
10:25:30.206	0.036882
10:25:30.607	0.037429
10:25:30.907	0.034767
10:25:31.307	0.033895
10:25:31.606	0.029842
10:25:32.007	0.043850
10:25:32.307	0.039811
10:25:32.606	0.036297
10:25:33.007	0.038099
10:25:33.306	0.032544
10:25:33.607	0.038565
10:25:34.007	0.030501
10:25:34.306	0.026762
10:25:34.606	0.027319
10:25:35.006	0.035875
10:25:35.306	0.037940
10:25:35.706	0.037253
10:25:36.006	0.036677
10:25:36.406	0.037835
10:25:36.707	0.040144
10:25:37.106	0.033456
10:25:37.406	0.027960
10:25:37.806	0.029440
10:25:38.107	0.029258
10:25:38.407	0.027274
10:25:38.806	0.027580
10:25:39.106	0.032368
10:25:39.407	0.040674
10:25:39.806	0.040089
10:25:40.107	0.035859
10:25:40.406	0.038064
10:25:40.807	0.036447
10:25:41.106	0.038489
10:25:41.507	0.036538
10:25:41.807	0.028265
10:25:42.206	0.032806
10:25:42.506	0.031206
10:25:42.907	0.035859
10:25:43.206	0.033292
10:25:43.607	0.035868
10:25:43.907	0.026014
10:25:44.307	0.038238
10:25:44.606	0.035513
10:25:45.006	0.045017
10:25:45.307	0.034659
10:25:45.606	0.035434
10:25:46.006	0.046142
10:25:46.307	0.049891
10:25:46.607	0.039987
10:25:47.006	0.027496
10:25:47.306	0.032588
10:25:47.606	0.035542
10:25:48.007	0.046520
10:25:48.307	0.045745
10:25:48.607	0.040960
10:25:49.007	0.052617
10:25:49.307	0.032342
10:25:49.707	0.034918
10:25:50.007	0.033072
10:25:50.407	0.028609
10:25:50.707	0.034765
10:25:51.107	0.031796
10:25:51.407	0.035133
10:25:51.707	0.033127
10:25:52.107	0.031661
10:25:52.406	0.035525
10:25:52.807	0.028174
10:25:53.106	0.031132
10:25:53.507	0.028826
10:25:53.806	0.023241
10:25:54.207	0.026584
10:25:54.507	0.031098
10:25:54.907	0.037451
10:25:55.206	0.036238
10:25:55.607	0.023302
10:25:55.907	0.021897
10:25:56.307	0.027958
10:25:56.606	0.033967
10:25:57.008	0.029265
10:25:57.306	0.028967
10:25:57.706	0.024407
10:25:58.006	0.036844
10:25:58.407	0.031705
10:25:58.706	0.028618
10:25:59.107	0.034206
10:25:59.407	0.025655
10:25:59.807	0.039171
10:26:00.207	0.034508
10:26:00.507	0.026820
10:26:00.807	0.029119
10:26:01.207	0.023165
10:26:01.507	0.033073
10:26:01.806	0.036438
10:26:02.206	0.031699
10:26:02.506	0.018793
10:26:02.906	0.026264
10:26:03.207	0.030495
10:26:03.607	0.029628
10:26:03.907	0.026830
10:26:04.307	0.032821
10:26:04.607	0.032386
10:26:05.006	0.025971
10:26:05.307	0.026180
10:26:05.606	0.028986
10:26:06.007	0.033592
10:26:06.306	0.039566
10:26:06.607	0.014946
10:26:07.007	0.025842
10:26:07.307	0.036678
10:26:07.707	0.029928
10:26:08.006	0.041056
10:26:08.407	0.028620
10:26:08.706	0.023706
10:26:09.107	0.029569
10:26:09.406	0.026786
10:26:09.707	0.033554
10:26:10.106	0.028536
10:26:10.407	0.020950
10:26:10.806	0.017890
10:26:11.106	0.019877
10:26:11.507	0.032281
10:26:11.807	0.017762
10:26:12.207	0.022628
10:26:12.507	0.018127
10:26:12.807	0.035850
10:26:13.207	0.029484
10:26:13.507	0.022186
10:26:13.807	0.025835
10:26:14.207	0.019448
10:26:14.506	0.017531
10:26:14.807	0.023876
10:26:15.207	0.036275
10:26:15.507	0.029715
10:26:15.806	0.028668
10:26:16.206	0.024775
10:26:16.507	0.027786
10:26:16.906	0.020385
10:26:17.207	0.020744
10:26:17.606	0.023895
10:26:17.906	0.020602
10:26:18.307	0.016271
10:26:18.607	0.017880
10:26:18.907	0.028620
10:26:19.307	0.025113
10:26:19.607	0.023319
10:26:20.007	0.021401
10:26:20.306	0.029899
10:26:20.607	0.029028
10:26:21.007	0.019807
10:26:21.306	0.023556
10:26:21.707	0.022637
10:26:22.006	0.028892
10:26:22.407	0.017766
10:26:22.706	0.015209
10:26:23.006	0.043499
10:26:23.406	0.036231
10:26:23.706	0.036090
10:26:24.007	0.025022
10:26:24.406	0.028172
10:26:24.707	0.026489
10:26:25.107	0.026789
10:26:25.407	0.027306
10:26:25.706	0.020903
10:26:26.106	0.033672
10:26:26.407	0.029828
10:26:26.707	0.030630
10:26:27.107	0.027687
10:26:27.407	0.031932
10:26:27.707	0.033082
10:26:28.107	0.037500
10:26:28.407	0.029108
10:26:28.707	0.030203
10:26:29.106	0.022998
10:26:29.407	0.018172
10:26:29.806	0.036845
10:26:30.107	0.042138
10:26:30.506	0.026336
10:26:30.807	0.031960
10:26:31.107	0.032703
10:26:31.506	0.031108
10:26:31.806	0.020769
10:26:32.207	0.026241
10:26:32.507	0.013430
10:26:32.806	0.022550
10:26:33.207	0.026301
10:26:33.506	0.022599
10:26:33.807	0.021589
10:26:34.207	0.028449
10:26:34.506	0.035513
10:26:34.807	0.027390
10:26:35.206	0.027482
10:26:35.506	0.034114
10:26:35.807	0.026236
10:26:36.208	0.022278
10:26:36.507	0.035138
10:26:36.807	0.021937
10:26:37.207	0.027292
10:26:37.507	0.032525
10:26:37.907	0.027815
10:26:38.206	0.030547
10:26:38.607	0.016854
10:26:38.907	0.020019
10:26:39.307	0.022035
10:26:39.606	0.035208
10:26:40.007	0.028407
10:26:40.307	0.020786
10:26:40.707	0.030364
10:26:41.006	0.028488
10:26:41.407	0.023520
10:26:41.707	0.022030
10:26:42.007	0.018628
10:26:42.407	0.022364
10:26:42.707	0.018716
10:26:43.007	0.034654
10:26:43.407	0.032617
10:26:43.707	0.033192
10:26:44.107	0.032639
10:26:44.407	0.033575
10:26:44.807	0.031103
10:26:45.106	0.027281
10:26:45.407	0.018252
10:26:45.807	0.027336
10:26:46.107	0.028633
10:26:46.508	0.023782
10:26:46.806	0.022511
10:26:47.206	0.023304
10:26:47.507	0.026209
10:26:47.807	0.030496
10:26:48.207	0.034039
10:26:48.507	0.029828
10:26:48.806	0.026186
10:26:49.206	0.021732
10:26:49.507	0.023739
10:26:49.807	0.020689
10:26:50.207	0.030528
10:26:50.507	0.026168
10:26:50.808	0.031634
10:26:51.207	0.039565
10:26:51.507	0.011165
10:26:51.807	0.029949
10:26:52.206	0.030904
10:26:52.507	0.026025
10:26:52.906	0.037515
10:26:53.207	0.020243
10:26:53.606	0.030732
10:26:53.907	0.032012
10:26:54.307	0.020709
10:26:54.607	0.025755
10:26:54.906	0.025835
10:26:55.307	0.030023
10:26:55.607	0.013130
10:26:55.907	0.018750
10:26:56.307	0.026099
10:26:56.607	0.030369
10:26:56.906	0.025246
10:26:57.306	0.027569
10:26:57.607	0.030000
10:26:57.907	0.028439
10:26:58.306	0.032321
10:26:58.607	0.034188
10:26:58.907	0.025119
10:26:59.307	0.031529
10:26:59.606	0.024505
10:26:59.907	0.022100
10:27:00.307	0.026532
10:27:00.607	0.027951
10:27:00.906	0.028819
10:27:01.307	0.033005
10:27:01.607	0.034778
10:27:02.006	0.023881
10:27:02.307	0.023591
10:27:02.707	0.031615
10:27:03.006	0.034106
10:27:03.407	0.026629
10:27:03.707	0.020934
10:27:04.006	0.030690
10:27:04.407	0.015769
10:27:04.707	0.024206
10:27:05.007	0.027462
10:27:05.407	0.026785
10:27:05.707	0.025995
10:27:06.007	0.030749
10:27:06.406	0.028650
10:27:06.707	0.019801
10:27:07.107	0.023648
10:27:07.407	0.028691
10:27:07.807	0.029414
10:27:08.107	0.024804
10:27:08.506	0.031316
10:27:08.807	0.033933
10:27:09.106	0.034102
10:27:09.507	0.033011
10:27:09.807	0.025744
10:27:10.106	0.025392
10:27:10.507	0.025652
10:27:10.807	0.030675
10:27:11.106	0.030428
10:27:11.506	0.030081
10:27:11.807	0.018971
10:27:12.106	0.021884
10:27:12.507	0.034858
10:27:12.807	0.032829
10:27:13.107	0.027997
10:27:13.507	0.028739
10:27:13.807	0.028908
10:27:14.207	0.020900
10:27:14.507	0.016442
10:27:14.807	0.018561
10:27:15.206	0.041287
10:27:15.507	0.021387
10:27:15.907	0.025122
10:27:16.307	0.038004
10:27:16.607	0.026905
10:27:17.006	0.027504
10:27:17.307	0.025340
10:27:17.707	0.035212
10:27:18.007	0.037605
10:27:18.307	0.029466
10:27:18.707	0.033992
10:27:19.007	0.036046
10:27:19.306	0.025518
10:27:19.707	0.018774
10:27:20.007	0.025105
10:27:20.307	0.024918
10:27:20.707	0.024658
10:27:21.006	0.019317
10:27:21.407	0.020526
10:27:21.707	0.035195
10:27:22.008	0.029849
10:27:22.407	0.026920
10:27:22.706	0.025434
10:27:23.107	0.023705
10:27:23.407	0.026005
10:27:23.807	0.021337
10:27:24.107	0.028399
10:27:24.507	0.028527
10:27:24.808	0.019252
10:27:25.107	0.025907
10:27:25.506	0.027979
10:27:25.807	0.032442
10:27:26.107	0.038223
10:27:26.507	0.028996
10:27:26.807	0.028145
10:27:27.106	0.028588
10:27:27.507	0.018593
10:27:27.807	0.016648
10:27:28.207	0.034844
10:27:28.507	0.038317
10:27:28.907	0.027542
10:27:29.208	0.026495
10:27:29.607	0.025319
10:27:29.907	0.019683
10:27:30.307	0.019030
10:27:30.607	0.023719
10:27:31.007	0.017108
10:27:31.307	0.021532
10:27:31.707	0.024474
10:27:32.007	0.036300
10:27:32.307	0.035839
10:27:32.707	0.011121
10:27:33.007	0.014189
10:27:33.307	0.023050
10:27:33.707	0.023291
10:27:34.007	0.029209
10:27:34.307	0.028955
10:27:34.707	0.029271
10:27:35.007	0.026021
10:27:35.407	0.023579
10:27:35.707	0.030762
10:27:36.107	0.031560
10:27:36.407	0.023716
10:27:36.807	0.025954
10:27:37.107	0.035002
10:27:37.507	0.022704
10:27:37.807	0.010287
10:27:38.107	0.014381
10:27:38.507	0.037507
10:27:38.807	0.031121
10:27:39.107	0.024964
10:27:39.507	0.038051
10:27:39.807	0.023288
10:27:40.108	0.022492
10:27:40.507	0.017561
10:27:40.807	0.023222
10:27:41.107	0.024473
10:27:41.507	0.020358
10:27:41.807	0.032959
10:27:42.207	0.035465
10:27:42.507	0.028325
10:27:42.907	0.029819
10:27:43.207	0.020049
10:27:43.607	0.022859
10:27:43.907	0.015607
10:27:44.307	0.032899
10:27:44.607	0.027031
10:27:45.007	0.025041
10:27:45.307	0.021528
10:27:45.707	0.024761
10:27:46.007	0.034055
10:27:46.307	0.025268
10:27:46.707	0.019403
10:27:47.007	0.017776
10:27:47.307	0.021269
10:27:47.707	0.025267
10:27:48.007	0.030429
10:27:48.307	0.032315
10:27:48.707	0.014237
10:27:49.007	0.019136
10:27:49.407	0.022300
10:27:49.707	0.027678
10:27:50.107	0.035569
10:27:50.407	0.026736
10:27:50.807	0.025360
10:27:51.108	0.016406
10:27:51.507	0.023756
10:27:51.808	0.030940
10:27:52.108	0.038933
10:27:52.507	0.031353
10:27:52.807	0.024722
10:27:53.207	0.040098
10:27:53.507	0.024605
10:27:53.907	0.029172
10:27:54.207	0.028302
10:27:54.607	0.020727
10:27:54.907	0.014710
10:27:55.308	0.022618
10:27:55.608	0.022682
10:27:56.007	0.025246
10:27:56.307	0.026869
10:27:56.707	0.025415
10:27:57.007	0.034716
10:27:57.308	0.030165
10:27:57.707	0.027464
10:27:58.007	0.035044
10:27:58.307	0.036304
10:27:58.707	0.028605
10:27:59.007	0.028612
10:27:59.307	0.030262
10:27:59.707	0.025347
10:28:00.007	0.027155
10:28:00.407	0.028261
10:28:00.708	0.022007
10:28:01.107	0.031019
10:28:01.408	0.025347
10:28:01.807	0.023663
10:28:02.107	0.034619
10:28:02.507	0.026177
10:28:02.807	0.017281
10:28:03.207	0.029972
10:28:03.507	0.021188
10:28:03.907	0.028804
10:28:04.208	0.034010
10:28:04.608	0.033786
10:28:04.907	0.030415
10:28:05.207	0.023778
10:28:05.607	0.025153
10:28:05.907	0.025699
10:28:06.308	0.023740
10:28:06.607	0.029224
10:28:07.007	0.025426
10:28:07.307	0.025678
10:28:07.708	0.030711
10:28:08.007	0.031104
10:28:08.307	0.023125
10:28:08.707	0.034965
10:28:09.008	0.023706
10:28:09.407	0.030449
10:28:09.708	0.024715
10:28:10.108	0.030632
10:28:10.408	0.026749
10:28:10.807	0.031053
10:28:11.107	0.020532
10:28:11.507	0.030514
10:28:11.808	0.020253
10:28:12.207	0.030492
10:28:12.507	0.033526
10:28:12.909	0.032820
10:28:13.207	0.025514
10:28:13.507	0.036170
10:28:13.907	0.037122
10:28:14.207	0.021255
10:28:14.607	0.024571
10:28:14.907	0.024909
10:28:15.307	0.031339
10:28:15.607	0.039967
10:28:16.007	0.030645
10:28:16.308	0.032690
10:28:16.708	0.029020
10:28:17.007	0.025872
10:28:17.307	0.020529
10:28:17.707	0.026969
10:28:18.007	0.031185
10:28:18.407	0.023705
10:28:18.707	0.025760
10:28:19.107	0.026480
10:28:19.407	0.018560
10:28:19.808	0.035485
10:28:20.107	0.030528
10:28:20.507	0.024715
10:28:20.808	0.026346
10:28:21.208	0.029098
10:28:21.508	0.025308
10:28:21.907	0.034547
10:28:22.207	0.026059
10:28:22.507	0.018130
10:28:22.907	0.025155
10:28:23.208	0.018564
10:28:23.607	0.021750
10:28:23.907	0.033288
10:28:24.307	0.032742
10:28:24.607	0.025879
10:28:25.008	0.028887
10:28:25.307	0.027019
10:28:25.708	0.024411
10:28:26.008	0.018960
10:28:26.308	0.027347
10:28:26.708	0.036437
10:28:27.007	0.029394
10:28:27.407	0.016925
10:28:27.707	0.023290
10:28:28.108	0.027986
10:28:28.408	0.030576
10:28:28.808	0.024834
10:28:29.107	0.019394
10:28:29.407	0.026116
10:28:29.807	0.035331
10:28:30.107	0.033304
10:28:30.407	0.025361
10:28:30.808	0.029522
10:28:31.108	0.031304
10:28:31.407	0.026499
10:28:31.807	0.014717
10:28:32.108	0.024182
10:28:32.508	0.027216
10:28:32.807	0.015410
10:28:33.207	0.029975
10:28:33.508	0.023027
10:28:33.908	0.025837
10:28:34.208	0.026717
10:28:34.607	0.033368
10:28:34.907	0.035525
10:28:35.308	0.032867
10:28:35.608	0.028032
10:28:36.008	0.025605
10:28:36.307	0.018361
10:28:36.608	0.014869
10:28:37.007	0.025300
10:28:37.308	0.045064
10:28:37.708	0.033736
10:28:38.008	0.033780
10:28:38.408	0.024580
10:28:38.707	0.018395
10:28:39.107	0.033586
10:28:39.408	0.026708
10:28:39.807	0.015648
10:28:40.107	0.023777
10:28:40.408	0.022039
10:28:40.808	0.030938
10:28:41.107	0.028097
10:28:41.408	0.019191
10:28:41.807	0.021785
10:28:42.108	0.028900
10:28:42.507	0.025069
10:28:42.808	0.017982
10:28:43.107	0.020867
10:28:43.507	0.016585
10:28:43.807	0.021726
10:28:44.208	0.024609
10:28:44.507	0.010265
10:28:44.907	0.022647
10:28:45.208	0.029126
10:28:45.507	0.021407
10:28:45.908	0.029658
10:28:46.207	0.027195
10:28:46.608	0.029676
10:28:46.907	0.021476
10:28:47.307	0.024204
10:28:47.608	0.031286
10:28:48.007	0.023700
10:28:48.308	0.028596
10:28:48.609	0.031619
10:28:49.008	0.019449
10:28:49.308	0.030501
10:28:49.609	0.031136
10:28:50.008	0.032387
10:28:50.307	0.042134
10:28:50.708	0.031697
10:28:51.007	0.032053
10:28:51.308	0.032214
10:28:51.709	0.028407
10:28:52.007	0.026149
10:28:52.408	0.028149
10:28:52.707	0.025277
10:28:53.108	0.029459
10:28:53.408	0.030119
10:28:53.808	0.026283
10:28:54.108	0.022335
10:28:54.508	0.019379
10:28:54.808	0.026061
10:28:55.207	0.019493
10:28:55.507	0.028902
10:28:55.908	0.027215
10:28:56.208	0.020550
10:28:56.508	0.030154
10:28:56.907	0.023862
10:28:57.207	0.033693
10:28:57.607	0.023629
10:28:57.908	0.015656
10:28:58.307	0.018044
10:28:58.607	0.020348
10:28:59.007	0.023036
10:28:59.308	0.017315
10:28:59.608	0.022794
10:29:00.008	0.026219
10:29:00.308	0.029215
10:29:00.708	0.027453
10:29:01.007	0.024023
10:29:01.408	0.029163
10:29:01.708	0.025101
10:29:02.108	0.029356
10:29:02.407	0.030002
10:29:02.807	0.025755
10:29:03.107	0.023975
10:29:03.507	0.019746
10:29:03.808	0.019574
10:29:04.209	0.029381
10:29:04.507	0.036163
10:29:04.908	0.042051
10:29:05.207	0.039115
10:29:05.607	0.027795
10:29:05.908	0.021872
10:29:06.307	0.023102
10:29:06.607	0.020593
10:29:06.907	0.023321
10:29:07.308	0.028545
10:29:07.607	0.029956
10:29:08.008	0.027089
10:29:08.308	0.036053
10:29:08.708	0.027508
10:29:09.007	0.033353
10:29:09.308	0.019721
10:29:09.708	0.016329
10:29:10.008	0.028868
10:29:10.407	0.030488
10:29:10.707	0.042763
10:29:11.107	0.040081
10:29:11.408	0.031135
10:29:11.808	0.026453
10:29:12.108	0.022601
10:29:12.509	0.017385
10:29:12.808	0.028277
10:29:13.208	0.028412
10:29:13.508	0.024464
10:29:13.808	0.018274
10:29:14.208	0.022980
10:29:14.507	0.024064
10:29:14.908	0.034421
10:29:15.207	0.038832
10:29:15.608	0.036443
10:29:15.907	0.031672
10:29:16.308	0.022750
10:29:16.608	0.028825
10:29:17.008	0.026527
10:29:17.308	0.012557
10:29:17.707	0.028307
10:29:18.008	0.034025
10:29:18.408	0.041731
10:29:18.709	0.033439
10:29:19.008	0.025684
10:29:19.407	0.034877
10:29:19.707	0.021579
10:29:20.008	0.018728
10:29:20.407	0.025949
10:29:20.708	0.025886
10:29:21.107	0.031332
10:29:21.407	0.031825
10:29:21.808	0.019290
10:29:22.107	0.031290
10:29:22.508	0.025939
10:29:22.809	0.017716
10:29:23.208	0.019396
10:29:23.507	0.017441
10:29:23.809	0.032086
10:29:24.208	0.031335
10:29:24.508	0.022474
10:29:24.908	0.036389
10:29:25.208	0.032012
10:29:25.607	0.015878
10:29:25.907	0.018434
10:29:26.308	0.027068
10:29:26.608	0.027511
10:29:26.907	0.031158
10:29:27.308	0.036407
10:29:27.607	0.027049
10:29:28.007	0.023534
10:29:28.308	0.020782
10:29:28.707	0.029527
10:29:29.007	0.037385
10:29:29.407	0.031459
10:29:29.708	0.026018
10:29:30.108	0.016009
10:29:30.408	0.026611
10:29:30.707	0.026622
10:29:31.107	0.020222
10:29:31.408	0.024283
10:29:31.707	0.019515
10:29:32.107	0.025812
10:29:32.408	0.023620
10:29:32.708	0.021987
10:29:33.107	0.023826
10:29:33.407	0.033060
10:29:33.808	0.036076
10:29:34.108	0.028873
10:29:34.508	0.030698
10:29:34.808	0.028740
10:29:35.108	0.028999
10:29:35.507	0.036642
10:29:35.807	0.037715
10:29:36.208	0.031110
10:29:36.508	0.024425
10:29:36.807	0.024831
10:29:37.207	0.021316
10:29:37.508	0.019270
10:29:37.907	0.024078
10:29:38.207	0.031915
10:29:38.607	0.034583
10:29:38.908	0.021728
10:29:39.308	0.027710
10:29:39.608	0.034606
10:29:40.009	0.034018
10:29:40.308	0.019702
10:29:40.707	0.021788
10:29:41.008	0.031373
10:29:41.408	0.030663
10:29:41.707	0.037855
10:29:42.008	0.031683
10:29:42.408	0.034966
10:29:42.708	0.036125
10:29:43.108	0.024469
10:29:43.408	0.016856
10:29:43.807	0.021708
10:29:44.108	0.030313
10:29:44.508	0.019356
10:29:44.807	0.011392
10:29:45.108	0.017595
10:29:45.507	0.023641
10:29:45.808	0.032520
10:29:46.107	0.031654
10:29:46.507	0.032950
10:29:46.808	0.035896
10:29:47.208	0.029795
10:29:47.508	0.027311
10:29:47.908	0.023549
10:29:48.208	0.029097
10:29:48.508	0.031779
10:29:48.908	0.017771
10:29:49.207	0.014323
10:29:49.608	0.026569
10:29:49.909	0.032463
10:29:50.307	0.029333
10:29:50.607	0.030730
10:29:51.008	0.028656
10:29:51.307	0.024053
10:29:51.707	0.022206
10:29:52.008	0.033687
10:29:52.407	0.032802
10:29:52.708	0.033755
10:29:53.107	0.044792
10:29:53.408	0.048214
10:29:53.808	0.029942
10:29:54.108	0.024014
10:29:54.507	0.026515
10:29:54.808	0.024018
10:29:55.108	0.022062
10:29:55.507	0.027882
10:29:55.808	0.017291
10:29:56.107	0.014386
10:29:56.507	0.017832
10:29:56.808	0.027858
10:29:57.207	0.014411
10:29:57.508	0.020933
10:29:57.908	0.030257
10:29:58.208	0.016756
10:29:58.607	0.010050
10:29:58.907	0.022955
10:29:59.307	0.035763
10:29:59.608	0.019311
10:29:59.908	0.017954
10:30:00.307	0.023102
10:30:00.607	0.027339
10:30:01.007	0.027076
10:30:01.308	0.027373
10:30:01.608	0.018494
10:30:02.008	0.016114
10:30:02.308	0.012809
10:30:02.708	0.008346
10:30:03.008	0.031544
10:30:03.408	0.032685
10:30:03.707	0.027670
10:30:04.108	0.024421
10:30:04.408	0.022734
10:30:04.808	0.017153
10:30:05.109	0.013145
10:30:05.507	0.021885
10:30:05.808	0.029481
10:30:06.107	0.027789
10:30:06.508	0.033343
10:30:06.808	0.027387
10:30:07.107	0.024626
10:30:07.508	0.024630
10:30:07.808	0.025347
10:30:08.208	0.037817
10:30:08.508	0.034494
10:30:08.908	0.040739
10:30:09.207	0.031435
10:30:09.609	0.031091
10:30:09.907	0.027616
10:30:10.307	0.027638
10:30:10.607	0.033568
10:30:11.008	0.037887
10:30:11.307	0.029741
10:30:11.708	0.018356
10:30:12.008	0.020699
10:30:12.307	0.024791
10:30:12.709	0.028667
10:30:13.008	0.024242
10:30:13.408	0.028054
10:30:13.707	0.019751
10:30:14.108	0.035588
10:30:14.409	0.034360
10:30:14.708	0.033310
10:30:15.107	0.025952
10:30:15.408	0.028818
10:30:15.807	0.018887
10:30:16.108	0.017285
10:30:16.408	0.026131
10:30:16.808	0.027628
10:30:17.208	0.022899
10:30:17.508	0.022536
10:30:17.908	0.027952
10:30:18.208	0.031270
10:30:18.608	0.013621
10:30:18.907	0.027729
10:30:19.308	0.022916
10:30:19.607	0.025024
10:30:20.008	0.020899
10:30:20.308	0.019794
10:30:20.707	0.030323
10:30:21.008	0.033084
10:30:21.307	0.035921
10:30:21.707	0.028439
10:30:22.008	0.018602
10:30:22.309	0.022724
10:30:22.708	0.029499
10:30:23.008	0.019328
10:30:23.308	0.009839
10:30:23.708	0.022944
10:30:24.007	0.034898
10:30:24.308	0.027253
10:30:24.708	0.022470
10:30:25.008	0.015374
10:30:25.408	0.020131
10:30:25.708	0.024385
10:30:26.108	0.030675
10:30:26.408	0.037249
10:30:26.807	0.027851
10:30:27.107	0.026124
10:30:27.408	0.019715
10:30:27.808	0.030252
10:30:28.107	0.040011
10:30:28.408	0.022882
10:30:28.808	0.031763
10:30:29.108	0.026584
10:30:29.408	0.023193
10:30:29.808	0.033052
10:30:30.108	0.035141
10:30:30.408	0.029149
10:30:30.809	0.022756
10:30:31.108	0.025130
10:30:31.508	0.014454
10:30:31.808	0.023098
10:30:32.108	0.025567
10:30:32.508	0.031644
10:30:32.808	0.032117
10:30:33.207	0.023100
10:30:33.508	0.018728
10:30:33.908	0.027788
10:30:34.207	0.029254
10:30:34.607	0.023185
10:30:34.907	0.019296
10:30:35.207	0.024441
10:30:35.609	0.027516
10:30:35.908	0.036058
10:30:36.307	0.031598
10:30:36.608	0.033527
10:30:37.008	0.028965
10:30:37.308	0.031282
10:30:37.608	0.026991
10:30:38.008	0.020386
10:30:38.308	0.013053
10:30:38.709	0.030307
10:30:39.008	0.027441
10:30:39.308	0.023121
10:30:39.707	0.027104
10:30:40.008	0.027311
10:30:40.407	0.034151
10:30:40.708	0.031379
10:30:41.008	0.031418
10:30:41.408	0.031406
10:30:41.808	0.032382
10:30:42.108	0.024931
10:30:42.508	0.023364
10:30:42.808	0.022463
10:30:43.208	0.026786
10:30:43.508	0.023646
10:30:43.908	0.017759
10:30:44.208	0.031871
10:30:44.508	0.031587
10:30:44.908	0.025636
10:30:45.208	0.036091
10:30:45.608	0.020756
10:30:45.908	0.028349
10:30:46.208	0.025991
10:30:46.608	0.031113
10:30:47.007	0.041353
10:30:47.308	0.030461
10:30:47.607	0.011665
10:30:48.008	0.036106
10:30:48.308	0.036179
10:30:48.608	0.027224
10:30:49.008	0.017351
10:30:49.308	0.027912
10:30:49.609	0.026790
10:30:50.008	0.030386
10:30:50.308	0.015818
10:30:50.708	0.020770
10:30:51.008	0.024593
10:30:51.308	0.030882
10:30:51.708	0.026575
10:30:52.008	0.031823
10:30:52.408	0.029860
10:30:52.708	0.024718
10:30:53.108	0.024864
10:30:53.408	0.024086
10:30:53.808	0.032270
10:30:54.108	0.037361
10:30:54.508	0.031601
10:30:54.808	0.023827
10:30:55.208	0.022712
10:30:55.508	0.024472
10:30:55.908	0.022034
10:30:56.208	0.022148
10:30:56.508	0.018936
10:30:56.908	0.020998
10:30:57.208	0.026066
10:30:57.608	0.027152
10:30:57.908	0.028285
10:30:58.308	0.029487
10:30:58.608	0.028134
10:30:59.008	0.023035
10:30:59.308	0.031621
10:30:59.708	0.012390
10:31:00.008	0.027450
10:31:00.408	0.024566
10:31:00.708	0.019583
10:31:01.108	0.021086
10:31:01.408	0.023549
10:31:01.809	0.021416
10:31:02.108	0.023291
10:31:02.508	0.014879
10:31:02.808	0.021561
10:31:03.208	0.036814
10:31:03.509	0.040498
10:31:03.908	0.034383
10:31:04.209	0.040070
10:31:04.508	0.040701
10:31:04.908	0.018485
10:31:05.208	0.014962
10:31:05.508	0.030639
10:31:05.908	0.040141
10:31:06.208	0.038584
10:31:06.509	0.028592
10:31:06.909	0.017785
10:31:07.208	0.017557
10:31:07.509	0.016823
10:31:07.908	0.021563
10:31:08.208	0.027446
10:31:08.608	0.035867
10:31:08.908	0.025259
10:31:09.309	0.025715
10:31:09.608	0.016098
10:31:10.008	0.019432
10:31:10.308	0.027852
10:31:10.609	0.033872
10:31:11.008	0.029583
10:31:11.308	0.028029
10:31:11.709	0.033882
10:31:12.008	0.024413
10:31:12.409	0.047236
10:31:12.708	0.043821
10:31:13.108	0.041699
10:31:13.408	0.017430
10:31:13.808	0.021594
10:31:14.108	0.033081
10:31:14.409	0.028131
10:31:14.808	0.041927
10:31:15.109	0.040454
10:31:15.509	0.028471
10:31:15.808	0.029347
10:31:16.208	0.036258
10:31:16.508	0.032702
10:31:16.908	0.038488
10:31:17.309	0.029336
10:31:17.609	0.014506
10:31:18.008	0.027031
10:31:18.308	0.032180
10:31:18.609	0.033777
10:31:19.008	0.025115
10:31:19.309	0.017273
10:31:19.608	0.021129
10:31:20.008	0.026563
10:31:20.309	0.023141
10:31:20.608	0.021800
10:31:21.008	0.012925
10:31:21.309	0.024857
10:31:21.708	0.022952
10:31:22.008	0.030689
10:31:22.408	0.031214
10:31:22.708	0.027715
10:31:23.109	0.025078
10:31:23.409	0.033218
10:31:23.808	0.030452
10:31:24.108	0.031616
10:31:24.508	0.040478
10:31:24.809	0.032295
10:31:25.208	0.023766
10:31:25.508	0.039583
10:31:25.808	0.028082
10:31:26.208	0.022436
10:31:26.508	0.021903
10:31:26.808	0.027428
10:31:27.208	0.019165
10:31:27.508	0.019359
10:31:27.808	0.021758
10:31:28.209	0.014916
10:31:28.508	0.010499
10:31:28.809	0.010078
10:31:29.208	0.025595
10:31:29.509	0.025970
10:31:29.908	0.008480
10:31:30.208	0.018081
10:31:30.609	0.017823
10:31:30.908	0.024696
10:31:31.309	0.027610
10:31:31.608	0.022174
10:31:32.008	0.023184
10:31:32.309	0.027243
10:31:32.708	0.037203
10:31:33.009	0.023435
10:31:33.408	0.024706
10:31:33.708	0.025116
10:31:34.108	0.016307
10:31:34.408	0.021079
10:31:34.710	0.024605
10:31:35.109	0.022822
10:31:35.409	0.020130
10:31:35.708	0.024471
10:31:36.108	0.023073
10:31:36.409	0.030036
10:31:36.808	0.027381
10:31:37.109	0.028545
10:31:37.509	0.039021
10:31:37.808	0.041239
10:31:38.208	0.033793
10:31:38.508	0.014242
10:31:38.908	0.020614
10:31:39.209	0.024343
10:31:39.608	0.036220
10:31:39.909	0.031711
10:31:40.308	0.019357
10:31:40.608	0.014977
10:31:40.909	0.024056
10:31:41.309	0.028727
10:31:41.609	0.025984
10:31:41.909	0.033009
10:31:42.308	0.027260
10:31:42.608	0.024183
10:31:42.909	0.025908
10:31:43.308	0.023691
10:31:43.609	0.015475
10:31:44.008	0.029352
10:31:44.308	0.032587
10:31:44.610	0.021233
10:31:45.009	0.018856
10:31:45.308	0.017805
10:31:45.709	0.014866
10:31:46.008	0.009673
10:31:46.308	0.009744
10:31:46.709	0.023658
10:31:47.008	0.030530
10:31:47.409	0.011722
10:31:47.709	0.007645
10:31:48.109	0.017134
10:31:48.409	0.022148
10:31:48.709	0.022292
10:31:49.109	0.025240
10:31:49.408	0.022474
10:31:49.809	0.026380
10:31:50.109	0.027763
10:31:50.509	0.022573
10:31:50.908	0.034719