Chart Recorder Data File Mon, Sep 23, 2024 11:10 AM
Time (s)	CH1 (V)  
10:52:40.516	1.096159
10:52:41.315	1.088023
10:52:41.615	1.069321
10:52:42.016	1.072453
10:52:42.315	1.112539
10:52:42.715	1.092131
10:52:43.015	1.085325
10:52:43.315	1.062437
10:52:43.716	1.090560
10:52:44.015	1.059179
10:52:44.315	1.035651
10:52:44.715	1.074418
10:52:45.015	1.086093
10:52:45.315	1.093919
10:52:45.716	1.044133
10:52:46.015	1.089525
10:52:46.316	1.082096
10:52:46.715	1.088769
10:52:47.015	1.086865
10:52:47.315	1.083590
10:52:47.715	1.096001
10:52:48.016	1.086246
10:52:48.415	1.078181
10:52:48.715	1.057315
10:52:49.115	1.065542
10:52:49.415	1.140047
10:52:49.815	1.099159
10:52:50.115	1.085933
10:52:50.415	1.055426
10:52:50.815	1.034716
10:52:51.115	1.072059
10:52:51.415	1.069923
10:52:51.815	1.066487
10:52:52.115	1.060514
10:52:52.416	1.039754
10:52:52.815	1.103731
10:52:53.115	1.086280
10:52:53.415	1.057105
10:52:53.815	1.040466
10:52:54.116	1.047446
10:52:54.415	1.056803
10:52:54.816	1.064508
10:52:55.115	1.057959
10:52:55.416	1.077016
10:52:55.816	1.065244
10:52:56.115	1.069117
10:52:56.516	1.079116
10:52:56.815	1.064624
10:52:57.216	1.059626
10:52:57.516	1.040326
10:52:57.916	1.073489
10:52:58.215	1.071189
10:52:58.515	1.018616
10:52:58.915	1.038853
10:52:59.216	1.063184
10:52:59.516	1.037231
10:52:59.915	1.059200
10:53:00.216	1.039279
10:53:00.615	1.062366
10:53:00.915	1.069964
10:53:01.216	1.020027
10:53:01.615	1.041741
10:53:01.915	1.027563
10:53:02.315	1.032698
10:53:02.615	1.039660
10:53:03.015	1.029505
10:53:03.316	1.000678
10:53:03.716	1.029825
10:53:04.016	1.086940
10:53:04.316	1.085532
10:53:04.715	1.068948
10:53:05.016	1.048953
10:53:05.316	1.032158
10:53:05.716	1.019889
10:53:06.016	1.050216
10:53:06.315	1.051364
10:53:06.716	1.001710
10:53:07.016	0.999717
10:53:07.316	1.016369
10:53:07.716	1.033158
10:53:08.015	1.044457
10:53:08.316	1.028485
10:53:08.716	1.054508
10:53:09.015	1.043307
10:53:09.416	1.020995
10:53:09.715	0.981037
10:53:10.115	0.951542
10:53:10.416	0.959198
10:53:10.816	0.986894
10:53:11.117	1.008464
10:53:11.516	0.980047
10:53:11.815	0.997003
10:53:12.216	0.977973
10:53:12.516	0.978066
10:53:12.915	0.986833
10:53:13.216	0.994160
10:53:13.516	1.046607
10:53:13.915	0.980370
10:53:14.215	0.965234
10:53:14.516	0.940549
10:53:14.915	0.958399
10:53:15.215	0.942026
10:53:15.515	0.924717
10:53:15.915	0.943865
10:53:16.215	0.921188
10:53:16.516	0.918528
10:53:16.915	0.891015
10:53:17.215	0.881689
10:53:17.615	0.831705
10:53:17.917	0.839023
10:53:18.315	0.884265
10:53:18.616	0.854147
10:53:19.015	0.897486
10:53:19.316	0.894041
10:53:19.615	0.919829
10:53:20.015	0.962966
10:53:20.315	1.009174
10:53:20.616	1.006603
10:53:21.016	0.996045
10:53:21.316	1.019187
10:53:21.716	1.116919
10:53:22.015	1.186857
10:53:22.316	1.210754
10:53:22.716	1.235152
10:53:23.015	1.302848
10:53:23.415	1.335989
10:53:23.716	1.348370
10:53:24.116	1.366701
10:53:24.415	1.357672
10:53:24.816	1.380415
10:53:25.115	1.445573
10:53:25.516	1.446552
10:53:25.816	1.442263
10:53:26.216	1.478501
10:53:26.516	1.485326
10:53:26.816	1.505268
10:53:27.215	1.514056
10:53:27.516	1.490224
10:53:27.816	1.521765
10:53:28.216	1.561010
10:53:28.515	1.568446
10:53:28.916	1.541125
10:53:29.215	1.563166
10:53:29.616	1.557576
10:53:29.916	1.540886
10:53:30.216	1.502816
10:53:30.615	1.488078
10:53:30.915	1.493895
10:53:31.316	1.455373
10:53:31.616	1.380619
10:53:32.016	1.347977
10:53:32.316	1.266821
10:53:32.616	1.237201
10:53:33.016	1.115367
10:53:33.316	1.084643
10:53:33.616	1.002065
10:53:34.016	1.005277
10:53:34.315	0.988686
10:53:34.615	0.946969
10:53:35.016	0.893489
10:53:35.315	0.873398
10:53:35.616	0.801989
10:53:36.016	0.786925
10:53:36.316	0.800185
10:53:36.615	0.794413
10:53:37.015	0.758946
10:53:37.315	0.744210
10:53:37.716	0.719289
10:53:38.016	0.752681
10:53:38.415	0.693569
10:53:38.716	0.684580
10:53:39.015	0.661058
10:53:39.416	0.638044
10:53:39.715	0.651143
10:53:40.115	0.641990
10:53:40.415	0.629952
10:53:40.715	0.610844
10:53:41.115	0.647889
10:53:41.415	0.655078
10:53:41.716	0.640900
10:53:42.116	0.613936
10:53:42.415	0.618465
10:53:42.816	0.619142
10:53:43.116	0.615068
10:53:43.515	0.611406
10:53:43.815	0.585857
10:53:44.115	0.607183
10:53:44.516	0.599351
10:53:44.816	0.599046
10:53:45.215	0.606895
10:53:45.516	0.570918
10:53:45.915	0.591526
10:53:46.215	0.600123
10:53:46.515	0.563896
10:53:46.916	0.561970
10:53:47.316	0.588633
10:53:47.616	0.572233
10:53:47.916	0.560930
10:53:48.316	0.573267
10:53:48.616	0.579871
10:53:48.915	0.559034
10:53:49.316	0.566931
10:53:49.616	0.579807
10:53:49.916	0.606915
10:53:50.316	0.641474
10:53:50.615	0.656512
10:53:50.916	0.705451
10:53:51.316	0.760040
10:53:51.616	0.838514
10:53:52.015	0.894697
10:53:52.315	0.958052
10:53:52.716	1.015787
10:53:53.015	1.085871
10:53:53.415	1.159577
10:53:53.716	1.154595
10:53:54.116	1.226919
10:53:54.416	1.286302
10:53:54.716	1.276020
10:53:55.116	1.302977
10:53:55.415	1.347999
10:53:55.716	1.383257
10:53:56.116	1.427112
10:53:56.416	1.411687
10:53:56.716	1.429591
10:53:57.115	1.486362
10:53:57.416	1.458167
10:53:57.716	1.490159
10:53:58.115	1.476651
10:53:58.416	1.506236
10:53:58.716	1.519090
10:53:59.115	1.537450
10:53:59.415	1.575257
10:53:59.815	1.516894
10:54:00.116	1.547190
10:54:00.515	1.565665
10:54:00.816	1.561964
10:54:01.116	1.574637
10:54:01.516	1.546454
10:54:01.815	1.506210
10:54:02.216	1.453845
10:54:02.515	1.451444
10:54:02.815	1.345593
10:54:03.216	1.301036
10:54:03.515	1.186904
10:54:03.916	1.109345
10:54:04.215	1.057715
10:54:04.615	0.984270
10:54:04.916	0.949297
10:54:05.216	0.894188
10:54:05.616	0.882141
10:54:05.916	0.850102
10:54:06.316	0.885856
10:54:06.616	0.817564
10:54:07.016	0.758747
10:54:07.316	0.742426
10:54:07.716	0.777764
10:54:08.015	0.721612
10:54:08.416	0.725266
10:54:08.716	0.728335
10:54:09.016	0.698749
10:54:09.416	0.671318
10:54:09.716	0.670399
10:54:10.015	0.679717
10:54:10.415	0.653985
10:54:10.715	0.643007
10:54:11.016	0.645497
10:54:11.416	0.675604
10:54:11.716	0.657105
10:54:12.015	0.638630
10:54:12.415	0.617258
10:54:12.716	0.592699
10:54:13.116	0.629909
10:54:13.416	0.613558
10:54:13.815	0.589111
10:54:14.116	0.590232
10:54:14.416	0.585135
10:54:14.815	0.573069
10:54:15.116	0.550512
10:54:15.516	0.565222
10:54:15.817	0.558262
10:54:16.116	0.543293
10:54:16.516	0.557927
10:54:16.816	0.557855
10:54:17.115	0.562052
10:54:17.515	0.554703
10:54:17.816	0.541647
10:54:18.116	0.546557
10:54:18.516	0.530066
10:54:18.816	0.543839
10:54:19.115	0.531818
10:54:19.516	0.536844
10:54:19.815	0.531548
10:54:20.216	0.530154
10:54:20.516	0.532651
10:54:20.816	0.486656
10:54:21.216	0.513214
10:54:21.515	0.494844
10:54:21.916	0.536769
10:54:22.316	0.515247
10:54:22.616	0.507214
10:54:22.916	0.515509
10:54:23.316	0.520146
10:54:23.616	0.528570
10:54:23.916	0.508472
10:54:24.315	0.506160
10:54:24.616	0.533459
10:54:24.915	0.548728
10:54:25.316	0.521720
10:54:25.616	0.541874
10:54:25.915	0.498080
10:54:26.316	0.476614
10:54:26.616	0.490677
10:54:27.016	0.461289
10:54:27.316	0.483140
10:54:27.716	0.507447
10:54:28.016	0.497942
10:54:28.416	0.440180
10:54:28.716	0.467619
10:54:29.116	0.480354
10:54:29.416	0.454672
10:54:29.816	0.459087
10:54:30.116	0.460684
10:54:30.516	0.459427
10:54:30.815	0.456205
10:54:31.116	0.504462
10:54:31.516	0.502733
10:54:31.816	0.485921
10:54:32.215	0.475491
10:54:32.516	0.492901
10:54:32.816	0.496671
10:54:33.216	0.489004
10:54:33.515	0.476022
10:54:33.916	0.458007
10:54:34.216	0.488045
10:54:34.616	0.467649
10:54:34.915	0.471742
10:54:35.215	0.456203
10:54:35.615	0.476548
10:54:35.915	0.471949
10:54:36.216	0.487427
10:54:36.616	0.468911
10:54:36.916	0.470482
10:54:37.315	0.443577
10:54:37.615	0.460483
10:54:37.916	0.457048
10:54:38.316	0.476629
10:54:38.616	0.472612
10:54:38.916	0.449400
10:54:39.315	0.430718
10:54:39.616	0.451549
10:54:39.916	0.462236
10:54:40.316	0.433101
10:54:40.616	0.413565
10:54:40.916	0.431651
10:54:41.316	0.426724
10:54:41.616	0.397654
10:54:42.015	0.381260
10:54:42.316	0.395770
10:54:42.716	0.418987
10:54:43.016	0.427918
10:54:43.416	0.404262
10:54:43.716	0.394854
10:54:44.016	0.385858
10:54:44.416	0.370267
10:54:44.716	0.378727
10:54:45.016	0.376435
10:54:45.416	0.353027
10:54:45.716	0.351448
10:54:46.015	0.348299
10:54:46.416	0.331321
10:54:46.716	0.320982
10:54:47.016	0.318832
10:54:47.416	0.303278
10:54:47.716	0.303311
10:54:48.017	0.294557
10:54:48.416	0.277717
10:54:48.716	0.279065
10:54:49.116	0.267710
10:54:49.416	0.265918
10:54:49.815	0.247934
10:54:50.116	0.267428
10:54:50.515	0.259686
10:54:50.815	0.270483
10:54:51.216	0.242821
10:54:51.516	0.242433
10:54:51.816	0.229970
10:54:52.216	0.230570
10:54:52.516	0.229429
10:54:52.916	0.248187
10:54:53.216	0.242476
10:54:53.616	0.240544
10:54:53.916	0.235075
10:54:54.216	0.227374
10:54:54.616	0.230294
10:54:54.916	0.226385
10:54:55.216	0.219372
10:54:55.616	0.217681
10:54:55.915	0.224159
10:54:56.216	0.220339
10:54:56.615	0.211524
10:54:56.916	0.197747
10:54:57.315	0.230914
10:54:57.615	0.236138
10:54:58.016	0.217373
10:54:58.316	0.217561
10:54:58.716	0.233079
10:54:59.016	0.230817
10:54:59.316	0.218136
10:54:59.716	0.223070
10:55:00.016	0.218591
10:55:00.416	0.214451
10:55:00.716	0.213168
10:55:01.116	0.225156
10:55:01.415	0.229590
10:55:01.816	0.222498
10:55:02.116	0.219732
10:55:02.415	0.210753
10:55:02.816	0.208046
10:55:03.116	0.193403
10:55:03.415	0.236514
10:55:03.816	0.235830
10:55:04.116	0.244120
10:55:04.516	0.244529
10:55:04.816	0.237513
10:55:05.116	0.242657
10:55:05.516	0.233347
10:55:05.816	0.233197
10:55:06.116	0.244392
10:55:06.516	0.238129
10:55:06.816	0.226597
10:55:07.215	0.244397
10:55:07.516	0.255822
10:55:07.916	0.239996
10:55:08.216	0.239566
10:55:08.615	0.247035
10:55:08.916	0.251162
10:55:09.216	0.214996
10:55:09.616	0.187285
10:55:09.915	0.198862
10:55:10.316	0.213508
10:55:10.616	0.221497
10:55:11.016	0.216835
10:55:11.316	0.212362
10:55:11.716	0.221162
10:55:12.016	0.212046
10:55:12.316	0.213238
10:55:12.716	0.212629
10:55:13.017	0.230125
10:55:13.316	0.229872
10:55:13.716	0.231351
10:55:14.016	0.231874
10:55:14.416	0.217365
10:55:14.716	0.239157
10:55:15.016	0.253927
10:55:15.417	0.263729
10:55:15.716	0.264012
10:55:16.116	0.249750
10:55:16.416	0.246342
10:55:16.816	0.246966
10:55:17.116	0.227734
10:55:17.416	0.230206
10:55:17.816	0.222372
10:55:18.116	0.226102
10:55:18.516	0.234228
10:55:18.816	0.232185
10:55:19.116	0.246679
10:55:19.516	0.235601
10:55:19.816	0.250961
10:55:20.116	0.240272
10:55:20.516	0.247721
10:55:20.816	0.259323
10:55:21.216	0.313661
10:55:21.516	0.343229
10:55:21.916	0.370966
10:55:22.316	0.411697
10:55:22.616	0.436339
10:55:23.015	0.521790
10:55:23.316	0.537909
10:55:23.716	0.576780
10:55:24.017	0.597932
10:55:24.416	0.631771
10:55:24.716	0.653573
10:55:25.116	0.670105
10:55:25.416	0.737789
10:55:25.816	0.763288
10:55:26.116	0.771135
10:55:26.416	0.754568
10:55:26.816	0.785107
10:55:27.116	0.770031
10:55:27.416	0.838126
10:55:27.816	0.833716
10:55:28.116	0.869995
10:55:28.516	0.895393
10:55:28.816	0.896088
10:55:29.216	0.908835
10:55:29.516	0.916291
10:55:29.816	0.943779
10:55:30.216	0.902954
10:55:30.516	0.920720
10:55:30.816	0.914551
10:55:31.217	0.945862
10:55:31.516	0.951103
10:55:31.916	0.906104
10:55:32.217	0.885518
10:55:32.616	0.875135
10:55:32.916	0.825949
10:55:33.316	0.728030
10:55:33.616	0.720208
10:55:34.016	0.653592
10:55:34.316	0.614348
10:55:34.616	0.558657
10:55:35.016	0.520464
10:55:35.316	0.493655
10:55:35.616	0.447965
10:55:36.016	0.421535
10:55:36.316	0.404679
10:55:36.616	0.391516
10:55:37.016	0.380135
10:55:37.316	0.376310
10:55:37.716	0.365034
10:55:38.016	0.366576
10:55:38.416	0.355823
10:55:38.716	0.355029
10:55:39.116	0.352286
10:55:39.417	0.310001
10:55:39.816	0.347440
10:55:40.116	0.338172
10:55:40.416	0.308210
10:55:40.816	0.299587
10:55:41.116	0.308308
10:55:41.416	0.320702
10:55:41.816	0.292315
10:55:42.116	0.293814
10:55:42.416	0.308228
10:55:42.816	0.318717
10:55:43.116	0.300022
10:55:43.416	0.285617
10:55:43.816	0.265282
10:55:44.116	0.257719
10:55:44.516	0.296461
10:55:44.816	0.279376
10:55:45.216	0.284988
10:55:45.516	0.268878
10:55:45.916	0.242691
10:55:46.216	0.239544
10:55:46.616	0.247021
10:55:46.916	0.262549
10:55:47.316	0.284940
10:55:47.616	0.289184
10:55:48.017	0.231913
10:55:48.317	0.254738
10:55:48.616	0.264723
10:55:49.017	0.269531
10:55:49.316	0.258061
10:55:49.616	0.287119
10:55:50.017	0.297409
10:55:50.316	0.278371
10:55:50.616	0.291603
10:55:51.016	0.309044
10:55:51.316	0.308135
10:55:51.716	0.322375
10:55:52.017	0.352446
10:55:52.416	0.370690
10:55:52.716	0.349514
10:55:53.116	0.338082
10:55:53.416	0.377454
10:55:53.816	0.403827
10:55:54.116	0.395050
10:55:54.417	0.367487
10:55:54.817	0.353781
10:55:55.116	0.351704
10:55:55.416	0.365652
10:55:55.817	0.364545
10:55:56.117	0.364806
10:55:56.416	0.364764
10:55:56.816	0.373275
10:55:57.116	0.363037
10:55:57.416	0.362124
10:55:57.816	0.361173
10:55:58.116	0.377830
10:55:58.417	0.373488
10:55:58.816	0.349699
10:55:59.116	0.335653
10:55:59.516	0.330821
10:55:59.816	0.339514
10:56:00.216	0.330629
10:56:00.516	0.327069
10:56:00.916	0.316656
10:56:01.217	0.297571
10:56:01.617	0.315867
10:56:01.917	0.307477
10:56:02.316	0.277049
10:56:02.616	0.265604
10:56:03.017	0.269647
10:56:03.316	0.266111
10:56:03.616	0.246957
10:56:04.016	0.233585
10:56:04.316	0.253185
10:56:04.616	0.239188
10:56:05.016	0.244985
10:56:05.317	0.261412
10:56:05.616	0.237257
10:56:06.016	0.237052
10:56:06.317	0.235556
10:56:06.717	0.223452
10:56:07.016	0.229916
10:56:07.416	0.214316
10:56:07.716	0.217003
10:56:08.117	0.192706
10:56:08.417	0.188071
10:56:08.817	0.197659
10:56:09.117	0.191633
10:56:09.417	0.178890
10:56:09.818	0.173711
10:56:10.117	0.173258
10:56:10.417	0.172348
10:56:10.816	0.182125
10:56:11.117	0.179753
10:56:11.416	0.167704
10:56:11.817	0.168923
10:56:12.116	0.168611
10:56:12.517	0.143562
10:56:12.817	0.146702
10:56:13.217	0.146242
10:56:13.516	0.144163
10:56:13.917	0.150813
10:56:14.216	0.140342
10:56:14.617	0.134007
10:56:14.917	0.153109
10:56:15.316	0.142800
10:56:15.616	0.156477
10:56:16.016	0.157858
10:56:16.317	0.143878
10:56:16.616	0.126484
10:56:17.016	0.160174
10:56:17.316	0.139974
10:56:17.616	0.143292
10:56:18.017	0.155969
10:56:18.316	0.142234
10:56:18.617	0.149975
10:56:19.016	0.127051
10:56:19.318	0.144352
10:56:19.617	0.151853
10:56:20.017	0.142868
10:56:20.317	0.133888
10:56:20.717	0.148356
10:56:21.016	0.127702
10:56:21.417	0.134722
10:56:21.716	0.128607
10:56:22.117	0.137866
10:56:22.417	0.145542
10:56:22.816	0.141237
10:56:23.116	0.128215
10:56:23.417	0.126780
10:56:23.817	0.127963
10:56:24.117	0.126397
10:56:24.516	0.121087
10:56:24.816	0.133310
10:56:25.217	0.133249
10:56:25.517	0.120063
10:56:25.817	0.126259
10:56:26.217	0.133068
10:56:26.516	0.128498
10:56:26.916	0.108708
10:56:27.216	0.097417
10:56:27.616	0.105605
10:56:27.916	0.105466
10:56:28.317	0.113991
10:56:28.617	0.120897
10:56:29.016	0.113055
10:56:29.317	0.112740
10:56:29.617	0.102671
10:56:30.016	0.105246
10:56:30.316	0.101923
10:56:30.617	0.109639
10:56:31.016	0.120045
10:56:31.317	0.106686
10:56:31.616	0.097883
10:56:32.017	0.114669
10:56:32.317	0.120345
10:56:32.617	0.110799
10:56:33.016	0.109357
10:56:33.317	0.098597
10:56:33.717	0.106032
10:56:34.017	0.104836
10:56:34.417	0.109498
10:56:34.717	0.108660
10:56:35.117	0.098804
10:56:35.416	0.098737
10:56:35.816	0.108738
10:56:36.116	0.115507
10:56:36.417	0.110798
10:56:36.818	0.121898
10:56:37.117	0.115162
10:56:37.517	0.111015
10:56:37.817	0.128089
10:56:38.217	0.126529
10:56:38.517	0.126879
10:56:38.817	0.123782
10:56:39.217	0.129532
10:56:39.516	0.124518
10:56:39.817	0.123254
10:56:40.216	0.118863
10:56:40.516	0.117122
10:56:40.816	0.125237
10:56:41.216	0.123310
10:56:41.517	0.129862
10:56:41.917	0.112399
10:56:42.216	0.115793
10:56:42.617	0.108065
10:56:42.916	0.111374
10:56:43.317	0.112504
10:56:43.617	0.116615
10:56:43.916	0.110069
10:56:44.316	0.110516
10:56:44.617	0.102806
10:56:44.916	0.097990
10:56:45.317	0.107479
10:56:45.617	0.107667
10:56:45.917	0.110223
10:56:46.317	0.117264
10:56:46.616	0.109409
10:56:46.917	0.091477
10:56:47.317	0.090734
10:56:47.617	0.097834
10:56:48.017	0.105034
10:56:48.317	0.094815
10:56:48.717	0.092929
10:56:49.017	0.100314
10:56:49.417	0.087315
10:56:49.717	0.093695
10:56:50.117	0.102615
10:56:50.417	0.097193
10:56:50.717	0.078841
10:56:51.116	0.093796
10:56:51.416	0.093433
10:56:51.716	0.097481
10:56:52.117	0.091492
10:56:52.416	0.093458
10:56:52.717	0.100035
10:56:53.117	0.089671
10:56:53.416	0.087772
10:56:53.817	0.081385
10:56:54.118	0.083386
10:56:54.517	0.088557
10:56:54.817	0.090450
10:56:55.217	0.082965
10:56:55.516	0.087355
10:56:55.918	0.078470
10:56:56.218	0.082281
10:56:56.616	0.086736
10:56:56.917	0.083657
10:56:57.316	0.094164
10:56:57.616	0.076552
10:56:57.917	0.076514
10:56:58.317	0.080738
10:56:58.617	0.084141
10:56:58.917	0.066165
10:56:59.316	0.065953
10:56:59.617	0.077426
10:56:59.916	0.079419
10:57:00.316	0.081810
10:57:00.617	0.097559
10:57:00.917	0.083599
10:57:01.317	0.076098
10:57:01.616	0.069946
10:57:02.017	0.071243
10:57:02.317	0.073391
10:57:02.717	0.076224
10:57:03.017	0.067932
10:57:03.417	0.059154
10:57:03.717	0.077629
10:57:04.117	0.074730
10:57:04.416	0.080732
10:57:04.817	0.078324
10:57:05.117	0.078367
10:57:05.517	0.085435
10:57:05.816	0.079894
10:57:06.217	0.080991
10:57:06.517	0.089054
10:57:06.817	0.096643
10:57:07.217	0.097244
10:57:07.516	0.077897
10:57:07.917	0.083213
10:57:08.217	0.111119
10:57:08.617	0.088459
10:57:08.917	0.087269
10:57:09.317	0.101030
10:57:09.616	0.109401
10:57:10.016	0.124709
10:57:10.316	0.128117
10:57:10.717	0.130430
10:57:11.017	0.135138
10:57:11.416	0.150281
10:57:11.717	0.163960
10:57:12.017	0.152773
10:57:12.416	0.149431
10:57:12.717	0.157384
10:57:13.016	0.139764
10:57:13.417	0.136616
10:57:13.717	0.143040
10:57:14.017	0.143778
10:57:14.417	0.144525
10:57:14.717	0.138045
10:57:15.017	0.147601
10:57:15.417	0.138144
10:57:15.717	0.143110
10:57:16.117	0.142480
10:57:16.417	0.143305
10:57:16.817	0.135355
10:57:17.117	0.138099
10:57:17.516	0.123649
10:57:17.817	0.118481
10:57:18.217	0.099891
10:57:18.516	0.097052
10:57:18.918	0.091584
10:57:19.217	0.091398
10:57:19.617	0.105758
10:57:19.917	0.086111
10:57:20.216	0.089612
10:57:20.617	0.083389
10:57:20.917	0.082520
10:57:21.218	0.085202
10:57:21.616	0.084359
10:57:21.917	0.089661
10:57:22.216	0.087443
10:57:22.617	0.085882
10:57:23.017	0.092005
10:57:23.317	0.082492
10:57:23.717	0.093519
10:57:24.017	0.091815
10:57:24.417	0.082110
10:57:24.717	0.077660
10:57:25.017	0.077049
10:57:25.416	0.079811
10:57:25.718	0.087015
10:57:26.016	0.087430
10:57:26.417	0.077706
10:57:26.717	0.070210
10:57:27.017	0.072163
10:57:27.417	0.064512
10:57:27.717	0.066314
10:57:28.017	0.074151
10:57:28.417	0.085436
10:57:28.717	0.090191
10:57:29.017	0.084442
10:57:29.417	0.075500
10:57:29.717	0.080733
10:57:30.117	0.090503
10:57:30.417	0.075150
10:57:30.817	0.072975
10:57:31.116	0.084924
10:57:31.517	0.071691
10:57:31.817	0.067336
10:57:32.117	0.065942
10:57:32.516	0.066094
10:57:32.817	0.066469
10:57:33.117	0.072271
10:57:33.517	0.070343
10:57:33.817	0.065707
10:57:34.117	0.067283
10:57:34.517	0.072383
10:57:34.816	0.077962
10:57:35.117	0.080636
10:57:35.517	0.071005
10:57:35.817	0.067275
10:57:36.117	0.066705
10:57:36.517	0.064948
10:57:36.817	0.076298
10:57:37.117	0.065749
10:57:37.517	0.072050
10:57:37.817	0.066050
10:57:38.217	0.066857
10:57:38.517	0.065616
10:57:38.917	0.057849
10:57:39.216	0.057884
10:57:39.616	0.056035
10:57:39.917	0.056539
10:57:40.216	0.069107
10:57:40.617	0.075363
10:57:40.916	0.070268
10:57:41.217	0.061115
10:57:41.617	0.067878
10:57:41.916	0.072783
10:57:42.217	0.074649
10:57:42.617	0.074952
10:57:42.916	0.077762
10:57:43.217	0.070335
10:57:43.617	0.088315
10:57:43.918	0.081821
10:57:44.316	0.087185
10:57:44.617	0.085886
10:57:45.017	0.090326
10:57:45.317	0.080739
10:57:45.717	0.078692
10:57:46.017	0.062909
10:57:46.417	0.059888
10:57:46.716	0.060333
10:57:47.017	0.058937
10:57:47.417	0.068103
10:57:47.716	0.059444
10:57:48.117	0.054104
10:57:48.417	0.053039
10:57:48.817	0.057203
10:57:49.117	0.066495
10:57:49.417	0.061369
10:57:49.817	0.061141
10:57:50.117	0.050028
10:57:50.417	0.047126
10:57:50.817	0.053195
10:57:51.117	0.054344
10:57:51.517	0.063168
10:57:51.818	0.063442
10:57:52.217	0.061690
10:57:52.517	0.056893
10:57:52.817	0.060757
10:57:53.217	0.063327
10:57:53.516	0.068998
10:57:53.917	0.063439
10:57:54.217	0.062704
10:57:54.517	0.062410
10:57:54.917	0.064286
10:57:55.217	0.070331
10:57:55.617	0.060625
10:57:55.917	0.065735
10:57:56.217	0.067971
10:57:56.616	0.068382
10:57:56.917	0.082677
10:57:57.217	0.071297
10:57:57.616	0.059049
10:57:57.917	0.062570
10:57:58.216	0.063843
10:57:58.617	0.069052
10:57:58.916	0.067301
10:57:59.316	0.069918
10:57:59.617	0.065068
10:57:59.917	0.071868
10:58:00.317	0.064106
10:58:00.617	0.063536
10:58:00.917	0.060930
10:58:01.317	0.063266
10:58:01.617	0.064384
10:58:02.017	0.064225
10:58:02.317	0.069422
10:58:02.617	0.064287
10:58:03.017	0.050701
10:58:03.317	0.057063
10:58:03.717	0.067748
10:58:04.017	0.066648
10:58:04.317	0.062234
10:58:04.717	0.063371
10:58:05.017	0.062770
10:58:05.417	0.063669
10:58:05.717	0.062396
10:58:06.117	0.063896
10:58:06.417	0.069813
10:58:06.717	0.078955
10:58:07.116	0.090843
10:58:07.417	0.094710
10:58:07.817	0.102750
10:58:08.117	0.088791
10:58:08.417	0.073807
10:58:08.816	0.073241
10:58:09.118	0.059077
10:58:09.417	0.071599
10:58:09.817	0.068208
10:58:10.117	0.060410
10:58:10.417	0.063829
10:58:10.817	0.072316
10:58:11.117	0.070311
10:58:11.417	0.068489
10:58:11.817	0.062267
10:58:12.116	0.061597
10:58:12.517	0.067173
10:58:12.817	0.087479
10:58:13.216	0.070140
10:58:13.517	0.069481
10:58:13.817	0.067929
10:58:14.216	0.060294
10:58:14.516	0.067550
10:58:14.817	0.079984
10:58:15.217	0.083493
10:58:15.517	0.080020
10:58:15.916	0.088300
10:58:16.217	0.082960
10:58:16.516	0.088783
10:58:16.917	0.085370
10:58:17.217	0.089749
10:58:17.617	0.093379
10:58:17.917	0.090943
10:58:18.318	0.113890
10:58:18.617	0.109446
10:58:19.017	0.100363
10:58:19.317	0.128121
10:58:19.717	0.119663
10:58:20.017	0.119788
10:58:20.417	0.119221
10:58:20.717	0.122743
10:58:21.017	0.124006
10:58:21.417	0.115723
10:58:21.717	0.124120
10:58:22.117	0.128905
10:58:22.417	0.119790
10:58:22.717	0.114392
10:58:23.117	0.111881
10:58:23.417	0.110635
10:58:23.716	0.111528
10:58:24.117	0.099031
10:58:24.418	0.104294
10:58:24.717	0.121275
10:58:25.117	0.114105
10:58:25.417	0.092702
10:58:25.717	0.095453
10:58:26.117	0.084562
10:58:26.417	0.065519
10:58:26.717	0.068655
10:58:27.117	0.076533
10:58:27.418	0.087614
10:58:27.717	0.083157
10:58:28.117	0.064657
10:58:28.417	0.070931
10:58:28.817	0.067600
10:58:29.117	0.071923
10:58:29.417	0.071990
10:58:29.817	0.072528
10:58:30.117	0.068863
10:58:30.417	0.064162
10:58:30.817	0.064518
10:58:31.117	0.060701
10:58:31.417	0.065883
10:58:31.816	0.071411
10:58:32.117	0.075379
10:58:32.417	0.081390
10:58:32.817	0.073249
10:58:33.118	0.069139
10:58:33.517	0.052660
10:58:33.817	0.054298
10:58:34.117	0.057217
10:58:34.517	0.053172
10:58:34.817	0.053152
10:58:35.217	0.062318
10:58:35.517	0.067844
10:58:35.817	0.064499
10:58:36.216	0.060467
10:58:36.517	0.062531
10:58:36.916	0.054052
10:58:37.217	0.061904
10:58:37.517	0.053940
10:58:37.917	0.068800
10:58:38.218	0.060697
10:58:38.517	0.066495
10:58:38.917	0.063833
10:58:39.217	0.058971
10:58:39.517	0.063108
10:58:39.917	0.062752
10:58:40.217	0.060634
10:58:40.517	0.065722
10:58:40.917	0.077330
10:58:41.217	0.071870
10:58:41.517	0.067284
10:58:41.917	0.074544
10:58:42.217	0.066300
10:58:42.617	0.064411
10:58:42.917	0.070362
10:58:43.317	0.063047
10:58:43.617	0.060951
10:58:44.017	0.061443
10:58:44.317	0.066388
10:58:44.617	0.078540
10:58:45.017	0.067433
10:58:45.317	0.063820
10:58:45.617	0.063910
10:58:46.017	0.058042
10:58:46.317	0.059908
10:58:46.617	0.074415
10:58:47.017	0.069480
10:58:47.317	0.069618
10:58:47.617	0.059816
10:58:48.018	0.064702
10:58:48.318	0.066009
10:58:48.617	0.070772
10:58:49.017	0.075565
10:58:49.317	0.068954
10:58:49.617	0.063920
10:58:50.017	0.053913
10:58:50.317	0.063477
10:58:50.617	0.060394
10:58:51.017	0.062625
10:58:51.317	0.063557
10:58:51.617	0.062242
10:58:52.017	0.069520
10:58:52.317	0.070404
10:58:52.617	0.061755
10:58:53.017	0.061815
10:58:53.317	0.060670
10:58:53.617	0.058725
10:58:54.017	0.054945
10:58:54.317	0.050845
10:58:54.617	0.052737
10:58:55.017	0.068888
10:58:55.317	0.067922
10:58:55.618	0.056531
10:58:56.018	0.058807
10:58:56.317	0.055731
10:58:56.617	0.061368
10:58:57.017	0.059905
10:58:57.317	0.061846
10:58:57.617	0.066215
10:58:58.017	0.061556
10:58:58.317	0.061273
10:58:58.617	0.053035
10:58:59.018	0.056727
10:58:59.317	0.056237
10:58:59.618	0.051932
10:59:00.017	0.056961
10:59:00.317	0.065126
10:59:00.717	0.056169
10:59:01.017	0.052095
10:59:01.417	0.052997
10:59:01.717	0.048228
10:59:02.117	0.057305
10:59:02.417	0.060289
10:59:02.717	0.052601
10:59:03.117	0.052987
10:59:03.417	0.049601
10:59:03.717	0.053121
10:59:04.118	0.058598
10:59:04.417	0.058413
10:59:04.818	0.050450
10:59:05.118	0.059443
10:59:05.417	0.059191
10:59:05.817	0.057207
10:59:06.118	0.056380
10:59:06.518	0.059861
10:59:06.817	0.067410
10:59:07.117	0.067866
10:59:07.518	0.059945
10:59:07.818	0.056521
10:59:08.217	0.063988
10:59:08.517	0.047171
10:59:08.818	0.051950
10:59:09.217	0.056903
10:59:09.518	0.055061
10:59:09.817	0.063464
10:59:10.218	0.061239
10:59:10.517	0.041506
10:59:10.818	0.045194
10:59:11.218	0.038978
10:59:11.517	0.047065
10:59:11.818	0.050320
10:59:12.217	0.060452
10:59:12.517	0.056249
10:59:12.817	0.046651
10:59:13.217	0.041041
10:59:13.517	0.048749
10:59:13.818	0.057424
10:59:14.218	0.052350
10:59:14.518	0.054687
10:59:14.818	0.046660
10:59:15.218	0.048180
10:59:15.518	0.048493
10:59:15.818	0.056179
10:59:16.218	0.062871
10:59:16.518	0.058225
10:59:16.918	0.050610
10:59:17.218	0.050662
10:59:17.617	0.059431
10:59:17.918	0.051446
10:59:18.218	0.042024
10:59:18.618	0.044661
10:59:18.918	0.042606
10:59:19.218	0.042601
10:59:19.618	0.049159
10:59:19.918	0.042127
10:59:20.218	0.043855
10:59:20.618	0.042879
10:59:20.917	0.042549
10:59:21.217	0.040194
10:59:21.618	0.046659
10:59:21.918	0.052703
10:59:22.218	0.056350
10:59:22.618	0.052822
10:59:22.917	0.058088
10:59:23.317	0.058668
10:59:23.618	0.061630
10:59:23.918	0.051903
10:59:24.318	0.061431
10:59:24.618	0.051596
10:59:24.918	0.055051
10:59:25.317	0.054725
10:59:25.618	0.050522
10:59:25.918	0.042309
10:59:26.318	0.055721
10:59:26.617	0.045207
10:59:26.918	0.042627
10:59:27.318	0.048208
10:59:27.618	0.052128
10:59:27.919	0.049195
10:59:28.317	0.048834
10:59:28.617	0.055078
10:59:28.917	0.052959
10:59:29.319	0.049767
10:59:29.618	0.044680
10:59:29.917	0.050394
10:59:30.318	0.057845
10:59:30.618	0.061776
10:59:31.018	0.065024
10:59:31.318	0.057977
10:59:31.617	0.047174
10:59:32.018	0.052328
10:59:32.318	0.055561
10:59:32.718	0.069387
10:59:33.018	0.055137
10:59:33.417	0.053890
10:59:33.718	0.053379
10:59:34.018	0.057095
10:59:34.418	0.062127
10:59:34.718	0.065883
10:59:35.018	0.063989
10:59:35.418	0.063363
10:59:35.718	0.063991
10:59:36.018	0.052658
10:59:36.418	0.050897
10:59:36.718	0.066407
10:59:37.018	0.062102
10:59:37.417	0.061545
10:59:37.717	0.065506
10:59:38.018	0.055449
10:59:38.417	0.044620
10:59:38.718	0.050780
10:59:39.018	0.053217
10:59:39.417	0.056944
10:59:39.718	0.052583
10:59:40.018	0.050845
10:59:40.418	0.057971
10:59:40.717	0.049453
10:59:41.018	0.055420
10:59:41.418	0.051559
10:59:41.718	0.057310
10:59:42.018	0.057241
10:59:42.418	0.061016
10:59:42.717	0.065545
10:59:43.018	0.056246
10:59:43.417	0.061239
10:59:43.718	0.063374
10:59:44.018	0.064862
10:59:44.417	0.064747
10:59:44.717	0.062424
10:59:45.118	0.052922
10:59:45.418	0.061665
10:59:45.819	0.066132
10:59:46.118	0.066896
10:59:46.517	0.065489
10:59:46.817	0.060117
10:59:47.118	0.060944
10:59:47.518	0.064275
10:59:47.818	0.055862
10:59:48.118	0.049442
10:59:48.518	0.053325
10:59:48.817	0.056251
10:59:49.117	0.057864
10:59:49.518	0.057229
10:59:49.818	0.061520
10:59:50.118	0.061715
10:59:50.518	0.060084
10:59:50.818	0.057726
10:59:51.117	0.049172
10:59:51.518	0.052540
10:59:51.817	0.058892
10:59:52.118	0.057551
10:59:52.517	0.055274
10:59:52.818	0.052919
10:59:53.117	0.060102
10:59:53.518	0.058808
10:59:53.818	0.055250
10:59:54.118	0.061644
10:59:54.518	0.059169
10:59:54.818	0.058898
10:59:55.117	0.051409
10:59:55.517	0.051709
10:59:55.818	0.055890
10:59:56.117	0.049048
10:59:56.518	0.053069
10:59:56.818	0.047303
10:59:57.118	0.046351
10:59:57.518	0.050545
10:59:57.818	0.048959
10:59:58.117	0.061561
10:59:58.517	0.058074
10:59:58.817	0.047489
10:59:59.118	0.050095
10:59:59.518	0.047299
10:59:59.817	0.049892
11:00:00.118	0.047583
11:00:00.518	0.046226
11:00:00.818	0.052379
11:00:01.118	0.054087
11:00:01.518	0.060504
11:00:01.818	0.059883
11:00:02.117	0.059206
11:00:02.518	0.059477
11:00:02.818	0.050955
11:00:03.118	0.054242
11:00:03.518	0.053875
11:00:03.817	0.043971
11:00:04.218	0.047371
11:00:04.518	0.043049
11:00:04.917	0.044616
11:00:05.218	0.043311
11:00:05.618	0.048425
11:00:05.917	0.055854
11:00:06.217	0.052253
11:00:06.618	0.057573
11:00:06.917	0.054726
11:00:07.217	0.056196
11:00:07.618	0.051679
11:00:07.917	0.043438
11:00:08.218	0.045804
11:00:08.618	0.044222
11:00:08.918	0.039355
11:00:09.218	0.038719
11:00:09.617	0.034668
11:00:09.917	0.048356
11:00:10.217	0.050214
11:00:10.618	0.043893
11:00:10.918	0.044927
11:00:11.318	0.051490
11:00:11.618	0.050435
11:00:11.918	0.050790
11:00:12.318	0.053565
11:00:12.618	0.050734
11:00:13.017	0.048667
11:00:13.318	0.044660
11:00:13.618	0.056437
11:00:14.018	0.048751
11:00:14.317	0.043817
11:00:14.618	0.040513
11:00:15.017	0.054669
11:00:15.318	0.054914
11:00:15.618	0.045048
11:00:16.018	0.047671
11:00:16.318	0.051070
11:00:16.718	0.052890
11:00:17.018	0.046672
11:00:17.317	0.052346
11:00:17.718	0.043472
11:00:18.018	0.044012
11:00:18.318	0.048344
11:00:18.718	0.051295
11:00:19.018	0.041758
11:00:19.318	0.038951
11:00:19.718	0.042975
11:00:20.018	0.053318
11:00:20.318	0.053926
11:00:20.718	0.056749
11:00:21.017	0.042317
11:00:21.318	0.041288
11:00:21.718	0.038281
11:00:22.018	0.042162
11:00:22.317	0.043666
11:00:22.718	0.046588
11:00:23.018	0.050362
11:00:23.318	0.045365
11:00:23.718	0.044172
11:00:24.017	0.043264
11:00:24.318	0.035939
11:00:24.718	0.043149
11:00:25.018	0.051987
11:00:25.318	0.049968
11:00:25.718	0.033725
11:00:26.018	0.036592
11:00:26.317	0.033749
11:00:26.717	0.039645
11:00:27.017	0.039152
11:00:27.318	0.030727
11:00:27.718	0.030037
11:00:28.017	0.039517
11:00:28.317	0.037758
11:00:28.718	0.039678
11:00:29.018	0.044224
11:00:29.318	0.042254
11:00:29.718	0.037409
11:00:30.018	0.037052
11:00:30.318	0.044851
11:00:30.718	0.041666
11:00:31.018	0.040005
11:00:31.418	0.038025
11:00:31.718	0.041050
11:00:32.117	0.046536
11:00:32.418	0.050348
11:00:32.818	0.043121
11:00:33.118	0.042441
11:00:33.517	0.035649
11:00:33.818	0.041604
11:00:34.118	0.043482
11:00:34.518	0.040367
11:00:34.818	0.033645
11:00:35.117	0.033717
11:00:35.518	0.030996
11:00:35.819	0.035575
11:00:36.117	0.035308
11:00:36.517	0.034163
11:00:36.817	0.036187
11:00:37.217	0.033088
11:00:37.518	0.033188
11:00:37.818	0.034286
11:00:38.218	0.037004
11:00:38.518	0.042231
11:00:38.918	0.037220
11:00:39.218	0.035915
11:00:39.618	0.038898
11:00:39.918	0.034702
11:00:40.218	0.040136
11:00:40.618	0.044925
11:00:40.918	0.042990
11:00:41.217	0.041214
11:00:41.618	0.047557
11:00:41.917	0.041973
11:00:42.218	0.038292
11:00:42.618	0.040950
11:00:42.918	0.046009
11:00:43.218	0.032547
11:00:43.618	0.031311
11:00:43.918	0.039122
11:00:44.217	0.039317
11:00:44.618	0.044629
11:00:44.918	0.043954
11:00:45.218	0.031359
11:00:45.618	0.046581
11:00:45.918	0.048593
11:00:46.317	0.040984
11:00:46.617	0.037681
11:00:46.918	0.040241
11:00:47.318	0.043029
11:00:47.617	0.049195
11:00:47.918	0.043245
11:00:48.318	0.045634
11:00:48.617	0.040443
11:00:49.018	0.036019
11:00:49.318	0.031345
11:00:49.617	0.039026
11:00:50.017	0.052031
11:00:50.318	0.053117
11:00:50.718	0.047737
11:00:51.017	0.046719
11:00:51.318	0.049901
11:00:51.717	0.052531
11:00:52.018	0.053514
11:00:52.318	0.051436
11:00:52.718	0.046407
11:00:53.018	0.046846
11:00:53.418	0.047930
11:00:53.718	0.033682
11:00:54.117	0.035528
11:00:54.418	0.038989
11:00:54.718	0.051196
11:00:55.119	0.031535
11:00:55.418	0.029696
11:00:55.818	0.031772
11:00:56.118	0.039939
11:00:56.418	0.036707
11:00:56.817	0.038273
11:00:57.118	0.038235
11:00:57.418	0.042911
11:00:57.818	0.046789
11:00:58.118	0.041626
11:00:58.418	0.035020
11:00:58.818	0.035838
11:00:59.118	0.037715
11:00:59.418	0.042485
11:00:59.817	0.040188
11:01:00.118	0.036882
11:01:00.518	0.031203
11:01:00.818	0.046076
11:01:01.217	0.036173
11:01:01.518	0.041673
11:01:01.818	0.041023
11:01:02.218	0.043108
11:01:02.518	0.047159
11:01:02.817	0.046617
11:01:03.218	0.042529
11:01:03.519	0.040971
11:01:03.918	0.044561
11:01:04.218	0.041914
11:01:04.518	0.036515
11:01:04.917	0.032072
11:01:05.217	0.029583
11:01:05.518	0.027672
11:01:05.918	0.034339
11:01:06.217	0.034716
11:01:06.518	0.030740
11:01:06.917	0.036252
11:01:07.218	0.043750
11:01:07.518	0.050030
11:01:07.918	0.038908
11:01:08.217	0.036213
11:01:08.618	0.043147
11:01:08.918	0.046687
11:01:09.218	0.049197
11:01:09.618	0.050275
11:01:09.918	0.057968
11:01:10.218	0.053765
11:01:10.618	0.048028
11:01:10.918	0.044446
11:01:11.218	0.047551
11:01:11.618	0.045494
11:01:11.918	0.037814
11:01:12.317	0.038666
11:01:12.617	0.033846
11:01:13.018	0.037392
11:01:13.318	0.037479
11:01:13.618	0.035935
11:01:14.018	0.039565
11:01:14.318	0.044838
11:01:14.618	0.039891
11:01:15.018	0.038289
11:01:15.318	0.042369
11:01:15.618	0.044216
11:01:16.018	0.050436
11:01:16.318	0.048298
11:01:16.618	0.046072
11:01:17.018	0.040756
11:01:17.318	0.044517
11:01:17.618	0.046404
11:01:18.018	0.045644
11:01:18.318	0.046354
11:01:18.718	0.049789
11:01:19.018	0.051891
11:01:19.318	0.058275
11:01:19.717	0.060614
11:01:20.017	0.072698
11:01:20.418	0.060588
11:01:20.718	0.056154
11:01:21.118	0.047109
11:01:21.418	0.041856
11:01:21.718	0.041978
11:01:22.118	0.041370
11:01:22.417	0.047149
11:01:22.718	0.041863
11:01:23.118	0.035022
11:01:23.418	0.035627
11:01:23.818	0.038264
11:01:24.118	0.042289
11:01:24.418	0.035803
11:01:24.817	0.037235
11:01:25.118	0.035251
11:01:25.418	0.043829
11:01:25.818	0.039209
11:01:26.118	0.028384
11:01:26.418	0.025450
11:01:26.818	0.036177
11:01:27.118	0.044788
11:01:27.518	0.036987
11:01:27.817	0.036993
11:01:28.218	0.034093
11:01:28.518	0.032707
11:01:28.818	0.040201
11:01:29.219	0.036037
11:01:29.517	0.035968
11:01:29.818	0.032372
11:01:30.218	0.038805
11:01:30.518	0.033832
11:01:30.818	0.039788
11:01:31.218	0.037349
11:01:31.518	0.037380
11:01:31.817	0.040648
11:01:32.218	0.051975
11:01:32.518	0.046371
11:01:32.818	0.034514
11:01:33.218	0.038029
11:01:33.518	0.038326
11:01:33.818	0.037544
11:01:34.218	0.034393
11:01:34.518	0.031730
11:01:34.918	0.037874
11:01:35.218	0.036963
11:01:35.518	0.036220
11:01:35.917	0.034904
11:01:36.218	0.036114
11:01:36.518	0.037980
11:01:36.918	0.038862
11:01:37.218	0.034366
11:01:37.618	0.045838
11:01:37.918	0.043046
11:01:38.318	0.040533
11:01:38.618	0.045515
11:01:38.918	0.041076
11:01:39.318	0.037737
11:01:39.618	0.037499
11:01:40.018	0.035958
11:01:40.318	0.035988
11:01:40.617	0.041816
11:01:41.018	0.047545
11:01:41.318	0.045722
11:01:41.718	0.041192
11:01:42.018	0.035400
11:01:42.318	0.033629
11:01:42.718	0.052286
11:01:43.018	0.063382
11:01:43.418	0.062085
11:01:43.718	0.053394
11:01:44.018	0.046471
11:01:44.419	0.044598
11:01:44.718	0.049475
11:01:45.118	0.042047
11:01:45.418	0.037804
11:01:45.718	0.034009
11:01:46.118	0.040260
11:01:46.418	0.042464
11:01:46.719	0.036325
11:01:47.118	0.040226
11:01:47.418	0.043760
11:01:47.718	0.047212
11:01:48.119	0.042134
11:01:48.418	0.043019
11:01:48.818	0.037198
11:01:49.118	0.034892
11:01:49.419	0.039706
11:01:49.818	0.044644
11:01:50.118	0.039284
11:01:50.518	0.037166
11:01:50.818	0.042230
11:01:51.218	0.040466
11:01:51.518	0.036105
11:01:51.818	0.030107
11:01:52.218	0.033330
11:01:52.519	0.034590
11:01:52.818	0.032126
11:01:53.218	0.032780
11:01:53.518	0.032124
11:01:53.818	0.033281
11:01:54.218	0.030077
11:01:54.518	0.026288
11:01:54.819	0.026294
11:01:55.218	0.029441
11:01:55.518	0.026146
11:01:55.918	0.033091
11:01:56.219	0.030096
11:01:56.519	0.039388
11:01:56.919	0.039224
11:01:57.219	0.036535
11:01:57.619	0.038847
11:01:57.918	0.044494
11:01:58.318	0.042175
11:01:58.618	0.044725
11:01:58.918	0.038061
11:01:59.318	0.032593
11:01:59.618	0.037983
11:01:59.918	0.038989
11:02:00.319	0.032590
11:02:00.618	0.033387
11:02:00.918	0.035062
11:02:01.318	0.034424
11:02:01.619	0.036382
11:02:02.018	0.030752
11:02:02.318	0.025374
11:02:02.718	0.032493
11:02:03.018	0.037182
11:02:03.319	0.039829
11:02:03.719	0.035970
11:02:04.018	0.033544
11:02:04.419	0.042885
11:02:04.718	0.037738
11:02:05.018	0.035998
11:02:05.419	0.039556
11:02:05.719	0.036361
11:02:06.019	0.037462
11:02:06.418	0.043996
11:02:06.718	0.036498
11:02:07.018	0.035759
11:02:07.418	0.043179
11:02:07.719	0.041397
11:02:08.019	0.031577
11:02:08.419	0.036264
11:02:08.718	0.023481
11:02:09.019	0.025626
11:02:09.418	0.037142
11:02:09.719	0.025822
11:02:10.119	0.034037
11:02:10.418	0.033298
11:02:10.719	0.030279
11:02:11.118	0.033742
11:02:11.418	0.033116
11:02:11.718	0.028666
11:02:12.119	0.027909
11:02:12.419	0.029414
11:02:12.718	0.027829
11:02:13.118	0.031627
11:02:13.419	0.031559
11:02:13.718	0.032330
11:02:14.119	0.035267
11:02:14.419	0.037801
11:02:14.719	0.037191
11:02:15.119	0.035482
11:02:15.418	0.032528
11:02:15.719	0.043132
11:02:16.119	0.029057
11:02:16.418	0.031649
11:02:16.718	0.033012
11:02:17.118	0.031244
11:02:17.419	0.023422
11:02:17.718	0.024662
11:02:18.118	0.026528
11:02:18.419	0.029888
11:02:18.718	0.029343
11:02:19.119	0.031744
11:02:19.418	0.031932
11:02:19.718	0.029117
11:02:20.118	0.032110
11:02:20.419	0.032723
11:02:20.719	0.035275
11:02:21.119	0.031639
11:02:21.419	0.034175
11:02:21.819	0.035826
11:02:22.119	0.037292
11:02:22.518	0.033688
11:02:22.818	0.036085
11:02:23.119	0.032749
11:02:23.518	0.034279
11:02:23.819	0.038836
11:02:24.219	0.044571
11:02:24.519	0.041342
11:02:24.919	0.037674
11:02:25.218	0.040765
11:02:25.618	0.047930
11:02:25.919	0.038016
11:02:26.219	0.039107
11:02:26.618	0.045074
11:02:26.918	0.048879
11:02:27.219	0.046056
11:02:27.618	0.046210
11:02:27.919	0.043135
11:02:28.319	0.046599
11:02:28.619	0.047610
11:02:28.919	0.040837
11:02:29.318	0.042994
11:02:29.619	0.044486
11:02:29.919	0.045552
11:02:30.319	0.036979
11:02:30.618	0.035476
11:02:31.019	0.037653
11:02:31.319	0.043712
11:02:31.620	0.039169
11:02:32.019	0.041442
11:02:32.319	0.041979
11:02:32.618	0.042584
11:02:33.019	0.041256
11:02:33.319	0.039910
11:02:33.718	0.045319
11:02:34.018	0.033179
11:02:34.318	0.030174
11:02:34.718	0.036979
11:02:35.019	0.035756
11:02:35.418	0.031774
11:02:35.719	0.033789
11:02:36.018	0.032009
11:02:36.419	0.033097
11:02:36.719	0.034251
11:02:37.119	0.038434
11:02:37.419	0.043643
11:02:37.818	0.041245
11:02:38.119	0.041989
11:02:38.418	0.039658
11:02:38.819	0.032641
11:02:39.119	0.031541
11:02:39.419	0.028377
11:02:39.819	0.023660
11:02:40.118	0.028832
11:02:40.519	0.036569
11:02:40.818	0.036942
11:02:41.119	0.034440
11:02:41.519	0.033587
11:02:41.818	0.036815
11:02:42.119	0.039209
11:02:42.519	0.023711
11:02:42.818	0.017366
11:02:43.119	0.019232
11:02:43.519	0.022220
11:02:43.819	0.024667
11:02:44.118	0.026408
11:02:44.519	0.018837
11:02:44.818	0.026023
11:02:45.118	0.030864
11:02:45.518	0.029647
11:02:45.819	0.030834
11:02:46.118	0.029235
11:02:46.518	0.031547
11:02:46.819	0.032015
11:02:47.119	0.030759
11:02:47.519	0.030069
11:02:47.818	0.033693
11:02:48.119	0.029543
11:02:48.519	0.030696
11:02:48.818	0.029637
11:02:49.119	0.027133
11:02:49.519	0.029198
11:02:49.819	0.028633
11:02:50.118	0.032167
11:02:50.518	0.029156
11:02:50.819	0.030940
11:02:51.119	0.030752
11:02:51.519	0.035500
11:02:51.819	0.035986
11:02:52.119	0.034048
11:02:52.519	0.034224
11:02:52.819	0.036524
11:02:53.219	0.035887
11:02:53.519	0.038348
11:02:53.918	0.040924
11:02:54.219	0.051892
11:02:54.518	0.050664
11:02:54.919	0.047647
11:02:55.219	0.043340
11:02:55.519	0.039345
11:02:55.919	0.044307
11:02:56.219	0.044174
11:02:56.618	0.045737
11:02:56.918	0.036618
11:02:57.219	0.034863
11:02:57.618	0.040077
11:02:57.918	0.045988
11:02:58.219	0.049032
11:02:58.619	0.053163
11:02:58.919	0.045219
11:02:59.219	0.041634
11:02:59.618	0.042062
11:02:59.918	0.044820
11:03:00.218	0.041875
11:03:00.618	0.052948
11:03:00.918	0.056333
11:03:01.219	0.059388
11:03:01.618	0.058049
11:03:01.919	0.050338
11:03:02.218	0.040398
11:03:02.619	0.037294
11:03:02.919	0.043679
11:03:03.219	0.046563
11:03:03.618	0.044863
11:03:03.919	0.046874
11:03:04.218	0.043525
11:03:04.618	0.050835
11:03:04.918	0.049258
11:03:05.319	0.049971
11:03:05.619	0.051155
11:03:06.020	0.047950
11:03:06.318	0.050079
11:03:06.718	0.054574
11:03:07.018	0.053614
11:03:07.319	0.047946
11:03:07.718	0.051320
11:03:08.019	0.057775
11:03:08.319	0.048697
11:03:08.719	0.054043
11:03:09.019	0.059897
11:03:09.319	0.063314
11:03:09.719	0.059848
11:03:10.018	0.054083
11:03:10.319	0.046466
11:03:10.719	0.054575
11:03:11.018	0.062715
11:03:11.319	0.065582
11:03:11.718	0.049301
11:03:12.019	0.054495
11:03:12.418	0.056052
11:03:12.719	0.040112
11:03:13.019	0.046178
11:03:13.419	0.051224
11:03:13.818	0.041178
11:03:14.118	0.045583
11:03:14.419	0.051133
11:03:14.818	0.059125
11:03:15.119	0.070548
11:03:15.419	0.060110
11:03:15.820	0.055916
11:03:16.118	0.049566
11:03:16.419	0.049771
11:03:16.819	0.055526
11:03:17.118	0.051669
11:03:17.419	0.052667
11:03:17.820	0.055544
11:03:18.119	0.064028
11:03:18.418	0.052639
11:03:18.819	0.044396
11:03:19.118	0.050384
11:03:19.419	0.070470
11:03:19.819	0.068784
11:03:20.120	0.064955
11:03:20.418	0.055750
11:03:20.819	0.048749
11:03:21.119	0.052123
11:03:21.419	0.061532
11:03:21.819	0.059337
11:03:22.119	0.064807
11:03:22.419	0.053828
11:03:22.819	0.044700
11:03:23.119	0.051263
11:03:23.419	0.057658
11:03:23.819	0.058478
11:03:24.219	0.061570
11:03:24.518	0.066392
11:03:24.819	0.064420
11:03:25.219	0.064668
11:03:25.519	0.064343
11:03:25.918	0.061041
11:03:26.219	0.051385
11:03:26.519	0.053010
11:03:26.919	0.059888
11:03:27.219	0.058957
11:03:27.618	0.054858
11:03:27.919	0.047135
11:03:28.219	0.046869
11:03:28.618	0.040442
11:03:28.919	0.041819
11:03:29.219	0.047859
11:03:29.619	0.064585
11:03:29.919	0.054324
11:03:30.219	0.060137
11:03:30.619	0.062833
11:03:30.918	0.062736
11:03:31.219	0.055629
11:03:31.619	0.055211
11:03:31.918	0.051206
11:03:32.219	0.057035
11:03:32.618	0.051146
11:03:32.918	0.044188
11:03:33.319	0.047509
11:03:33.619	0.051052
11:03:33.919	0.054511
11:03:34.319	0.047836
11:03:34.619	0.048929
11:03:35.019	0.047489
11:03:35.319	0.052797
11:03:35.618	0.051074
11:03:36.018	0.049680
11:03:36.318	0.047676
11:03:36.619	0.042233
11:03:37.019	0.040288
11:03:37.319	0.044290
11:03:37.619	0.048312
11:03:38.019	0.045884
11:03:38.318	0.042146
11:03:38.619	0.045914
11:03:39.019	0.048582
11:03:39.318	0.052908
11:03:39.618	0.044216
11:03:40.019	0.059320
11:03:40.319	0.065878
11:03:40.718	0.050412
11:03:41.018	0.055059
11:03:41.319	0.053423
11:03:41.719	0.047099
11:03:42.019	0.049927
11:03:42.319	0.058262
11:03:42.719	0.049594
11:03:43.018	0.049355
11:03:43.319	0.049431
11:03:43.719	0.049243
11:03:44.019	0.046841
11:03:44.319	0.040980
11:03:44.719	0.039983
11:03:45.019	0.038137
11:03:45.419	0.037501
11:03:45.718	0.044528
11:03:46.019	0.042460
11:03:46.418	0.035075
11:03:46.719	0.039973
11:03:47.118	0.051328
11:03:47.419	0.051258
11:03:47.719	0.044977
11:03:48.119	0.039236
11:03:48.418	0.040981
11:03:48.819	0.046222
11:03:49.119	0.039745
11:03:49.418	0.047315
11:03:49.820	0.039846
11:03:50.120	0.049015
11:03:50.418	0.050289
11:03:50.819	0.040322
11:03:51.119	0.044505
11:03:51.419	0.041877
11:03:51.819	0.044929
11:03:52.119	0.047956
11:03:52.419	0.055033
11:03:52.819	0.046343
11:03:53.119	0.040095
11:03:53.418	0.043620
11:03:53.819	0.048689
11:03:54.119	0.048275
11:03:54.518	0.052309
11:03:54.818	0.046590
11:03:55.119	0.044803
11:03:55.519	0.044649
11:03:55.819	0.042588
11:03:56.119	0.040651
11:03:56.519	0.045668
11:03:56.818	0.040268
11:03:57.219	0.043812
11:03:57.519	0.047617
11:03:57.819	0.044871
11:03:58.219	0.047504
11:03:58.519	0.052485
11:03:58.919	0.044703
11:03:59.219	0.052040
11:03:59.518	0.044158
11:03:59.919	0.045999
11:04:00.219	0.045467
11:04:00.619	0.044408
11:04:00.919	0.052391
11:04:01.319	0.046500
11:04:01.618	0.047101
11:04:02.019	0.047944
11:04:02.319	0.056544
11:04:02.719	0.061826
11:04:03.018	0.058584
11:04:03.419	0.064931
11:04:03.719	0.064470
11:04:04.119	0.065493
11:04:04.419	0.049348
11:04:04.718	0.051515
11:04:05.119	0.053905
11:04:05.419	0.052156
11:04:05.718	0.045614
11:04:06.118	0.035912
11:04:06.419	0.038079
11:04:06.719	0.037155
11:04:07.119	0.034398
11:04:07.419	0.037226
11:04:07.719	0.038723
11:04:08.119	0.041010
11:04:08.419	0.037284
11:04:08.719	0.037538
11:04:09.119	0.046718
11:04:09.418	0.044008
11:04:09.819	0.042621
11:04:10.119	0.039716
11:04:10.419	0.034878
11:04:10.819	0.047941
11:04:11.119	0.054623
11:04:11.418	0.058334
11:04:11.819	0.045506
11:04:12.120	0.040970
11:04:12.419	0.037336
11:04:12.818	0.046552
11:04:13.119	0.044063
11:04:13.420	0.044212
11:04:13.818	0.045337
11:04:14.119	0.057880
11:04:14.419	0.060439
11:04:14.819	0.065822
11:04:15.120	0.051155
11:04:15.520	0.053275
11:04:15.819	0.051081
11:04:16.219	0.035175
11:04:16.519	0.043981
11:04:16.919	0.027054
11:04:17.218	0.026299
11:04:17.519	0.029175
11:04:17.919	0.034719
11:04:18.219	0.038050
11:04:18.519	0.033313
11:04:18.919	0.030304
11:04:19.219	0.032943
11:04:19.520	0.042226
11:04:19.919	0.041058
11:04:20.220	0.034097
11:04:20.519	0.031900
11:04:20.919	0.038894
11:04:21.219	0.040157
11:04:21.519	0.037725
11:04:21.919	0.039572
11:04:22.219	0.035613
11:04:22.619	0.036835
11:04:22.918	0.037090
11:04:23.220	0.042976
11:04:23.619	0.041795
11:04:23.919	0.037922
11:04:24.319	0.043432
11:04:24.718	0.047569
11:04:25.018	0.036370
11:04:25.318	0.028130
11:04:25.719	0.035050
11:04:26.019	0.045716
11:04:26.319	0.046399
11:04:26.719	0.040803
11:04:27.019	0.040311
11:04:27.419	0.045182
11:04:27.719	0.041632
11:04:28.119	0.041294
11:04:28.419	0.037232
11:04:28.719	0.043436
11:04:29.118	0.053170
11:04:29.419	0.053612
11:04:29.719	0.041693
11:04:30.119	0.042694
11:04:30.419	0.041843
11:04:30.819	0.035396
11:04:31.119	0.039346
11:04:31.519	0.043429
11:04:31.819	0.042019
11:04:32.219	0.044864
11:04:32.519	0.033752
11:04:32.819	0.037285
11:04:33.219	0.038363
11:04:33.519	0.043111
11:04:33.818	0.041827
11:04:34.219	0.039529
11:04:34.518	0.045732
11:04:34.819	0.034182
11:04:35.219	0.025919
11:04:35.519	0.042069
11:04:35.819	0.042140
11:04:36.219	0.043545
11:04:36.519	0.044512
11:04:36.819	0.037514
11:04:37.219	0.037641
11:04:37.519	0.037096
11:04:37.919	0.034531
11:04:38.219	0.039227
11:04:38.519	0.042086
11:04:38.919	0.036197
11:04:39.218	0.041323
11:04:39.619	0.037997
11:04:39.919	0.043098
11:04:40.219	0.047090
11:04:40.619	0.038117
11:04:40.918	0.035440
11:04:41.319	0.040924
11:04:41.619	0.047851
11:04:41.919	0.044317
11:04:42.319	0.043728
11:04:42.619	0.042296
11:04:43.019	0.055426
11:04:43.319	0.054881
11:04:43.719	0.051443
11:04:44.019	0.042212
11:04:44.419	0.042918
11:04:44.719	0.042546
11:04:45.019	0.045326
11:04:45.419	0.043795
11:04:45.719	0.049467
11:04:46.019	0.051307
11:04:46.419	0.044610
11:04:46.719	0.049353
11:04:47.020	0.047328
11:04:47.419	0.058955
11:04:47.719	0.056202
11:04:48.019	0.048732
11:04:48.419	0.057176
11:04:48.719	0.045156
11:04:49.019	0.045934
11:04:49.419	0.051175
11:04:49.719	0.050080
11:04:50.119	0.050035
11:04:50.419	0.042779
11:04:50.719	0.052211
11:04:51.119	0.055436
11:04:51.419	0.052074
11:04:51.820	0.061376
11:04:52.119	0.048778
11:04:52.519	0.041227
11:04:52.819	0.037332
11:04:53.119	0.038567
11:04:53.519	0.037985
11:04:53.819	0.041752
11:04:54.219	0.045762
11:04:54.519	0.045595
11:04:54.819	0.048415
11:04:55.219	0.043156
11:04:55.519	0.047783
11:04:55.819	0.052620
11:04:56.219	0.046690
11:04:56.519	0.042433
11:04:56.819	0.037451
11:04:57.219	0.037099
11:04:57.519	0.040567
11:04:57.819	0.044715
11:04:58.219	0.036217
11:04:58.519	0.034237
11:04:58.819	0.038269
11:04:59.219	0.035378
11:04:59.519	0.030961
11:04:59.920	0.037027
11:05:00.219	0.042915
11:05:00.619	0.036375
11:05:00.919	0.038729
11:05:01.219	0.039907
11:05:01.619	0.035638
11:05:01.919	0.030110
11:05:02.319	0.034515
11:05:02.619	0.032358
11:05:02.919	0.038951
11:05:03.319	0.032376
11:05:03.619	0.034274
11:05:04.020	0.037458
11:05:04.319	0.040441
11:05:04.619	0.042929
11:05:05.020	0.039589
11:05:05.319	0.034989
11:05:05.719	0.033349
11:05:06.019	0.031790
11:05:06.319	0.032296
11:05:06.720	0.034201
11:05:07.019	0.026426
11:05:07.419	0.026703
11:05:07.719	0.030568
11:05:08.019	0.038326
11:05:08.419	0.030760
11:05:08.719	0.028956
11:05:09.019	0.030907
11:05:09.419	0.033715
11:05:09.719	0.031560
11:05:10.020	0.038087
11:05:10.419	0.041394
11:05:10.720	0.040642
11:05:11.119	0.034663
11:05:11.419	0.033265
11:05:11.719	0.033707
11:05:12.120	0.026204
11:05:12.419	0.029512
11:05:12.819	0.027916
11:05:13.119	0.031126
11:05:13.420	0.034622
11:05:13.820	0.035392
11:05:14.119	0.027981
11:05:14.419	0.026818
11:05:14.820	0.024962
11:05:15.119	0.021721
11:05:15.520	0.034420
11:05:15.820	0.035536
11:05:16.120	0.035514
11:05:16.520	0.038681
11:05:16.820	0.035210
11:05:17.219	0.028970
11:05:17.521	0.035642
11:05:17.820	0.035530
11:05:18.219	0.035906
11:05:18.520	0.039603
11:05:18.820	0.038183
11:05:19.219	0.036266
11:05:19.519	0.031748
11:05:19.819	0.033491
11:05:20.219	0.031471
11:05:20.520	0.031249
11:05:20.820	0.031417
11:05:21.219	0.027910
11:05:21.519	0.025699
11:05:21.820	0.033195
11:05:22.219	0.025348
11:05:22.519	0.026083
11:05:22.919	0.027614
11:05:23.220	0.027777
11:05:23.620	0.027582
11:05:23.919	0.032053
11:05:24.219	0.027477
11:05:24.619	0.033239
11:05:24.919	0.032434
11:05:25.219	0.027493
11:05:25.619	0.027945
11:05:25.919	0.030011
11:05:26.320	0.034985
11:05:26.620	0.028427
11:05:26.920	0.031832
11:05:27.320	0.036499
11:05:27.619	0.029774
11:05:27.920	0.029416
11:05:28.319	0.031977
11:05:28.619	0.027372
11:05:28.920	0.027102
11:05:29.320	0.021604
11:05:29.620	0.017210
11:05:30.020	0.025274
11:05:30.320	0.027557
11:05:30.720	0.032507
11:05:31.020	0.031049
11:05:31.420	0.030467
11:05:31.719	0.035245
11:05:32.119	0.031848
11:05:32.419	0.027603
11:05:32.720	0.032504
11:05:33.120	0.039720
11:05:33.419	0.036023
11:05:33.820	0.037450
11:05:34.119	0.029949
11:05:34.520	0.029681
11:05:34.820	0.026677
11:05:35.119	0.030325
11:05:35.519	0.027206
11:05:35.819	0.024495
11:05:36.120	0.023127
11:05:36.520	0.022624
11:05:36.819	0.025557
11:05:37.120	0.028820
11:05:37.520	0.028041
11:05:37.819	0.033768
11:05:38.219	0.037768
11:05:38.520	0.031559
11:05:38.820	0.025727
11:05:39.220	0.027641
11:05:39.519	0.025882
11:05:39.820	0.029198
11:05:40.220	0.022095
11:05:40.520	0.021868
11:05:40.920	0.024488
11:05:41.220	0.026207
11:05:41.619	0.028693
11:05:41.920	0.028223
11:05:42.220	0.025541
11:05:42.619	0.026923
11:05:42.920	0.034361
11:05:43.219	0.036639
11:05:43.620	0.026448
11:05:43.919	0.024540
11:05:44.220	0.024678
11:05:44.619	0.034493
11:05:44.920	0.032641
11:05:45.220	0.029091
11:05:45.620	0.029088
11:05:45.920	0.029561
11:05:46.319	0.026662
11:05:46.620	0.026142
11:05:47.020	0.022343
11:05:47.319	0.028559
11:05:47.720	0.019764
11:05:48.020	0.021212
11:05:48.319	0.029782
11:05:48.720	0.032784
11:05:49.020	0.029460
11:05:49.320	0.023602
11:05:49.720	0.031359
11:05:50.020	0.034053
11:05:50.320	0.037604
11:05:50.720	0.041417
11:05:51.019	0.038483
11:05:51.320	0.029363
11:05:51.720	0.030475
11:05:52.020	0.024107
11:05:52.320	0.022483
11:05:52.720	0.020889
11:05:53.020	0.019411
11:05:53.319	0.017055
11:05:53.720	0.025716
11:05:54.020	0.028949
11:05:54.420	0.030072
11:05:54.720	0.024948
11:05:55.020	0.021521
11:05:55.419	0.026234
11:05:55.719	0.027665
11:05:56.119	0.024900
11:05:56.419	0.019199
11:05:56.720	0.017137
11:05:57.119	0.026713
11:05:57.420	0.030800
11:05:57.820	0.024914
11:05:58.119	0.026616
11:05:58.420	0.021519
11:05:58.820	0.024325
11:05:59.120	0.023725
11:05:59.519	0.022447
11:05:59.819	0.025320
11:06:00.219	0.022583
11:06:00.519	0.023461
11:06:00.920	0.025056
11:06:01.219	0.024961
11:06:01.619	0.030188
11:06:01.920	0.031596
11:06:02.220	0.029174
11:06:02.620	0.030613
11:06:02.920	0.036895
11:06:03.219	0.037866
11:06:03.620	0.040494
11:06:03.919	0.029803
11:06:04.219	0.028093
11:06:04.619	0.026707
11:06:04.919	0.027475
11:06:05.320	0.031538
11:06:05.620	0.029471
11:06:06.019	0.029406
11:06:06.320	0.032975
11:06:06.720	0.031402
11:06:07.019	0.031026
11:06:07.419	0.029946
11:06:07.720	0.036534
11:06:08.119	0.034225
11:06:08.420	0.030406
11:06:08.820	0.032843
11:06:09.120	0.030536
11:06:09.420	0.029440
11:06:09.819	0.029691
11:06:10.119	0.029283
11:06:10.420	0.021490
11:06:10.820	0.026288
11:06:11.119	0.027478
11:06:11.419	0.029723
11:06:11.820	0.027016
11:06:12.121	0.025575
11:06:12.419	0.023753
11:06:12.819	0.024071
11:06:13.120	0.023145
11:06:13.420	0.034390
11:06:13.819	0.046394
11:06:14.119	0.044335
11:06:14.520	0.039493
11:06:14.819	0.037242
11:06:15.120	0.040819
11:06:15.520	0.037854
11:06:15.819	0.030192
11:06:16.219	0.025123
11:06:16.520	0.028608
11:06:16.920	0.029452
11:06:17.220	0.027268
11:06:17.519	0.028715
11:06:17.920	0.027984
11:06:18.219	0.023608
11:06:18.520	0.027928
11:06:18.919	0.027660
11:06:19.220	0.029140
11:06:19.520	0.030139
11:06:19.920	0.036688
11:06:20.220	0.039834
11:06:20.620	0.040805
11:06:20.920	0.031984
11:06:21.320	0.034968
11:06:21.619	0.034947
11:06:22.019	0.036536
11:06:22.319	0.033797
11:06:22.719	0.027699
11:06:23.020	0.031926
11:06:23.319	0.029137
11:06:23.720	0.029005
11:06:24.019	0.029500
11:06:24.319	0.038201
11:06:24.720	0.036063
11:06:25.020	0.028834
11:06:25.420	0.027822
11:06:25.719	0.026273
11:06:26.120	0.024033
11:06:26.420	0.029134
11:06:26.820	0.033673
11:06:27.120	0.029739
11:06:27.520	0.028480
11:06:27.820	0.025917
11:06:28.219	0.025847
11:06:28.520	0.025414
11:06:28.919	0.029575
11:06:29.219	0.023192
11:06:29.620	0.022884
11:06:29.920	0.020939
11:06:30.219	0.021639
11:06:30.620	0.022765
11:06:30.920	0.022748
11:06:31.220	0.024145
11:06:31.620	0.032497
11:06:31.920	0.026522
11:06:32.220	0.029572
11:06:32.620	0.035741
11:06:32.920	0.035235
11:06:33.319	0.027346
11:06:33.619	0.026463
11:06:34.019	0.031428
11:06:34.320	0.033579
11:06:34.620	0.035212
11:06:35.020	0.029348
11:06:35.319	0.029679
11:06:35.719	0.038633
11:06:36.019	0.032893
11:06:36.320	0.024950
11:06:36.720	0.022474
11:06:37.020	0.023352
11:06:37.320	0.028103
11:06:37.720	0.025132
11:06:38.020	0.022369
11:06:38.320	0.022965
11:06:38.719	0.029509
11:06:39.020	0.028138
11:06:39.319	0.025315
11:06:39.719	0.022884
11:06:40.020	0.021086
11:06:40.320	0.023244
11:06:40.720	0.032415
11:06:41.021	0.025911
11:06:41.420	0.024782
11:06:41.720	0.024694
11:06:42.121	0.025598
11:06:42.420	0.017471
11:06:42.820	0.018915
11:06:43.120	0.018478
11:06:43.420	0.021349
11:06:43.819	0.025014
11:06:44.119	0.020817
11:06:44.420	0.019678
11:06:44.820	0.019858
11:06:45.119	0.018051
11:06:45.420	0.022775
11:06:45.820	0.022309
11:06:46.120	0.026803
11:06:46.420	0.031076
11:06:46.820	0.023021
11:06:47.120	0.031216
11:06:47.420	0.032185
11:06:47.820	0.023968
11:06:48.120	0.032745
11:06:48.420	0.040303
11:06:48.819	0.034650
11:06:49.119	0.026052
11:06:49.519	0.022406
11:06:49.820	0.022844
11:06:50.219	0.024955
11:06:50.520	0.026866
11:06:50.921	0.023018
11:06:51.219	0.019455
11:06:51.620	0.030969
11:06:52.020	0.030180
11:06:52.319	0.024122
11:06:52.620	0.023837
11:06:53.020	0.026326
11:06:53.320	0.024891
11:06:53.620	0.018116
11:06:54.019	0.022157
11:06:54.320	0.025231
11:06:54.720	0.026661
11:06:55.020	0.019500
11:06:55.420	0.021007
11:06:55.721	0.020434
11:06:56.021	0.023330
11:06:56.420	0.020988
11:06:56.720	0.020002
11:06:57.120	0.026349
11:06:57.420	0.025452
11:06:57.820	0.031203
11:06:58.120	0.028911
11:06:58.419	0.019482
11:06:58.819	0.016742
11:06:59.119	0.014568
11:06:59.420	0.018554
11:06:59.820	0.020987
11:07:00.120	0.023635
11:07:00.521	0.029277
11:07:00.819	0.027937
11:07:01.219	0.029217
11:07:01.519	0.033678
11:07:01.821	0.027267
11:07:02.220	0.028641
11:07:02.519	0.037400
11:07:02.920	0.035054
11:07:03.220	0.031360
11:07:03.620	0.032696
11:07:03.920	0.028853
11:07:04.220	0.026692
11:07:04.619	0.021964
11:07:05.020	0.022738
11:07:05.320	0.018939
11:07:05.621	0.017885
11:07:06.021	0.015629
11:07:06.320	0.028150
11:07:06.621	0.026770
11:07:07.020	0.023129
11:07:07.320	0.027159
11:07:07.619	0.025282
11:07:08.020	0.026288
11:07:08.320	0.019102
11:07:08.719	0.024479
11:07:09.020	0.024493
11:07:09.320	0.033541
11:07:09.720	0.025293
11:07:10.019	0.032316
11:07:10.419	0.035568
11:07:10.719	0.029391
11:07:11.120	0.026385
11:07:11.420	0.027229
11:07:11.720	0.025044
11:07:12.119	0.036897
11:07:12.420	0.029109
11:07:12.719	0.032740
11:07:13.120	0.029993
11:07:13.419	0.031274
11:07:13.820	0.041798
11:07:14.120	0.040122
11:07:14.520	0.033458
11:07:14.820	0.032179
11:07:15.120	0.028580
11:07:15.520	0.018207
11:07:15.820	0.026822
11:07:16.220	0.028698
11:07:16.520	0.022332
11:07:16.820	0.017868
11:07:17.220	0.021048
11:07:17.519	0.020763
11:07:17.920	0.020842
11:07:18.220	0.022580
11:07:18.519	0.022136
11:07:18.919	0.023077
11:07:19.219	0.019027
11:07:19.520	0.022585
11:07:19.920	0.019644
11:07:20.220	0.020610
11:07:20.520	0.023830
11:07:20.920	0.027065
11:07:21.219	0.024541
11:07:21.520	0.027691
11:07:21.920	0.032405
11:07:22.220	0.029090
11:07:22.620	0.025640
11:07:22.920	0.027378
11:07:23.220	0.025433
11:07:23.621	0.022858
11:07:23.920	0.026461
11:07:24.320	0.023423
11:07:24.620	0.021342
11:07:25.021	0.016873
11:07:25.320	0.019539
11:07:25.620	0.023891
11:07:26.020	0.031790
11:07:26.320	0.030633
11:07:26.620	0.023054
11:07:27.019	0.021262
11:07:27.320	0.017901
11:07:27.620	0.017988
11:07:28.020	0.025456
11:07:28.320	0.028860
11:07:28.620	0.029696
11:07:29.020	0.021809
11:07:29.320	0.019509
11:07:29.620	0.021356
11:07:30.021	0.027639
11:07:30.320	0.028435
11:07:30.720	0.030631
11:07:31.020	0.031957
11:07:31.420	0.031566
11:07:31.720	0.035256
11:07:32.120	0.032099
11:07:32.419	0.035246
11:07:32.820	0.029113
11:07:33.120	0.029471
11:07:33.520	0.034254
11:07:33.819	0.038452
11:07:34.220	0.044163
11:07:34.519	0.038433
11:07:34.820	0.034351
11:07:35.220	0.026663
11:07:35.520	0.026709
11:07:35.820	0.028604
11:07:36.220	0.029892
11:07:36.520	0.037050
11:07:36.920	0.025016
11:07:37.220	0.025084
11:07:37.620	0.023071
11:07:37.920	0.018516
11:07:38.320	0.022228
11:07:38.620	0.019186
11:07:39.020	0.020432
11:07:39.321	0.027107
11:07:39.620	0.025487
11:07:40.020	0.025428
11:07:40.320	0.028398
11:07:40.620	0.025724
11:07:41.020	0.027415
11:07:41.320	0.024140
11:07:41.620	0.028460
11:07:42.020	0.026439
11:07:42.320	0.027425
11:07:42.621	0.024882
11:07:43.020	0.031096
11:07:43.320	0.033399
11:07:43.720	0.036394
11:07:44.020	0.033478
11:07:44.420	0.032814
11:07:44.720	0.033179
11:07:45.120	0.025185
11:07:45.420	0.026970
11:07:45.820	0.038218
11:07:46.119	0.036189
11:07:46.520	0.032192
11:07:46.820	0.031016
11:07:47.220	0.022513
11:07:47.520	0.031019
11:07:47.820	0.024900
11:07:48.219	0.028834
11:07:48.520	0.021418
11:07:48.920	0.028308
11:07:49.220	0.027688
11:07:49.620	0.031776
11:07:49.920	0.043602
11:07:50.320	0.027911
11:07:50.620	0.020819
11:07:51.020	0.025002
11:07:51.320	0.022599
11:07:51.620	0.023640
11:07:52.020	0.021466
11:07:52.320	0.030513
11:07:52.720	0.039395
11:07:53.020	0.042201
11:07:53.420	0.035314
11:07:53.720	0.026052
11:07:54.120	0.024166
11:07:54.420	0.023701
11:07:54.820	0.022231
11:07:55.120	0.028549
11:07:55.520	0.022796
11:07:55.820	0.025646
11:07:56.121	0.027047
11:07:56.520	0.031596
11:07:56.820	0.037649
11:07:57.220	0.039733
11:07:57.520	0.029531
11:07:57.920	0.026789
11:07:58.220	0.028384
11:07:58.620	0.038422
11:07:58.920	0.034518
11:07:59.320	0.026164
11:07:59.620	0.032977
11:08:00.020	0.034752
11:08:00.320	0.027293
11:08:00.720	0.025820
11:08:01.020	0.031596
11:08:01.420	0.035708
11:08:01.720	0.034657
11:08:02.021	0.028264
11:08:02.420	0.019989
11:08:02.721	0.018701
11:08:03.120	0.030248
11:08:03.420	0.029216
11:08:03.720	0.024820
11:08:04.120	0.017963
11:08:04.422	0.024890
11:08:04.820	0.030149
11:08:05.120	0.033882
11:08:05.520	0.035312
11:08:05.820	0.033542
11:08:06.220	0.039382
11:08:06.521	0.029980
11:08:06.821	0.032454
11:08:07.221	0.026676
11:08:07.520	0.035499
11:08:07.820	0.039704
11:08:08.220	0.037463
11:08:08.520	0.036535
11:08:08.920	0.031369
11:08:09.220	0.028234
11:08:09.520	0.036250
11:08:09.920	0.030728
11:08:10.221	0.025812
11:08:10.621	0.026801
11:08:10.920	0.028371
11:08:11.221	0.029304
11:08:11.621	0.032155
11:08:11.921	0.029309
11:08:12.321	0.036677
11:08:12.620	0.036248
11:08:12.921	0.036662
11:08:13.320	0.035449
11:08:13.620	0.027382
11:08:14.021	0.035104
11:08:14.321	0.037485
11:08:14.720	0.041234
11:08:15.020	0.036621
11:08:15.420	0.017827
11:08:15.720	0.027671
11:08:16.120	0.034588
11:08:16.421	0.036238
11:08:16.820	0.029931
11:08:17.120	0.023875
11:08:17.520	0.030264
11:08:17.820	0.030111
11:08:18.120	0.030472
11:08:18.520	0.029128
11:08:18.820	0.023096
11:08:19.220	0.026971
11:08:19.521	0.026423
11:08:19.920	0.019991
11:08:20.220	0.018484
11:08:20.622	0.032309
11:08:20.920	0.027913
11:08:21.321	0.024815
11:08:21.621	0.021572
11:08:21.920	0.028673
11:08:22.320	0.024570
11:08:22.621	0.023310
11:08:23.021	0.035169
11:08:23.320	0.027093
11:08:23.720	0.030214
11:08:24.020	0.027153
11:08:24.421	0.025982
11:08:24.720	0.026889
11:08:25.021	0.031757
11:08:25.420	0.027917
11:08:25.720	0.027762
11:08:26.020	0.027056
11:08:26.421	0.031805
11:08:26.721	0.027357
11:08:27.020	0.021033
11:08:27.421	0.020782
11:08:27.720	0.021740
11:08:28.120	0.020650
11:08:28.520	0.033094
11:08:28.820	0.026956
11:08:29.122	0.023579
11:08:29.521	0.025737
11:08:29.820	0.025671
11:08:30.220	0.023100
11:08:30.520	0.025798
11:08:30.920	0.026362
11:08:31.220	0.024484
11:08:31.621	0.031563
11:08:31.921	0.031067
11:08:32.220	0.037850
11:08:32.622	0.036376
11:08:32.920	0.032517
11:08:33.320	0.034555
11:08:33.621	0.038963
11:08:33.920	0.030839
11:08:34.321	0.028587
11:08:34.621	0.027275
11:08:35.020	0.027801
11:08:35.321	0.035644
11:08:35.721	0.025312
11:08:36.020	0.026062
11:08:36.420	0.039396
11:08:36.721	0.034151
11:08:37.122	0.030650
11:08:37.421	0.032348
11:08:37.820	0.034624
11:08:38.121	0.033638
11:08:38.521	0.023066
11:08:38.820	0.025536
11:08:39.221	0.025222
11:08:39.521	0.031691
11:08:39.920	0.034086
11:08:40.221	0.029432
11:08:40.621	0.028929
11:08:40.921	0.029355
11:08:41.221	0.032708
11:08:41.621	0.039284
11:08:41.921	0.030243
11:08:42.221	0.031406
11:08:42.620	0.029305
11:08:42.921	0.036262
11:08:43.220	0.032168
11:08:43.621	0.031228
11:08:43.920	0.029363
11:08:44.320	0.034380
11:08:44.621	0.033657
11:08:45.020	0.030162
11:08:45.322	0.029903
11:08:45.721	0.031075
11:08:46.020	0.025968
11:08:46.320	0.028196
11:08:46.720	0.028160
11:08:47.020	0.016626
11:08:47.320	0.014937
11:08:47.721	0.017573
11:08:48.020	0.020188
11:08:48.321	0.025654
11:08:48.720	0.025428
11:08:49.021	0.024985
11:08:49.321	0.030793
11:08:49.720	0.031611
11:08:50.020	0.024540
11:08:50.321	0.027545
11:08:50.720	0.032379
11:08:51.021	0.033743
11:08:51.322	0.024348
11:08:51.720	0.023254
11:08:52.020	0.026200
11:08:52.421	0.023307
11:08:52.721	0.024359
11:08:53.120	0.031412
11:08:53.421	0.035241
11:08:53.722	0.031163
11:08:54.120	0.030977
11:08:54.420	0.033836
11:08:54.820	0.044664
11:08:55.121	0.033352
11:08:55.421	0.025640
11:08:55.820	0.025347
11:08:56.121	0.023395
11:08:56.521	0.021323
11:08:56.820	0.024650
11:08:57.120	0.032531
11:08:57.521	0.029954
11:08:57.821	0.027500
11:08:58.220	0.036412
11:08:58.520	0.038618
11:08:58.921	0.031254
11:08:59.220	0.030953
11:08:59.620	0.030493
11:08:59.920	0.029280
11:09:00.220	0.032709
11:09:00.621	0.031269
11:09:00.920	0.029126
11:09:01.220	0.025714
11:09:01.620	0.030819
11:09:01.921	0.032014
11:09:02.221	0.038770
11:09:02.621	0.040172
11:09:02.920	0.049520
11:09:03.320	0.053583
11:09:03.720	0.052921
11:09:04.021	0.044444
11:09:04.320	0.061677
11:09:04.720	0.066178
11:09:05.020	0.063987
11:09:05.421	0.075030
11:09:05.721	0.073163
11:09:06.121	0.070135
11:09:06.421	0.071850
11:09:06.821	0.075503
11:09:07.120	0.071138
11:09:07.520	0.067815
11:09:07.820	0.079438
11:09:08.121	0.088471
11:09:08.521	0.073125
11:09:08.820	0.081178
11:09:09.221	0.080906
11:09:09.521	0.079731
11:09:09.920	0.078644
11:09:10.221	0.089383
11:09:10.520	0.098277
11:09:10.920	0.087068
11:09:11.221	0.087412
11:09:11.621	0.086087
11:09:11.921	0.094862
11:09:12.320	0.094972
11:09:12.621	0.079947
11:09:13.021	0.080619
11:09:13.320	0.082591
11:09:13.721	0.092225
11:09:14.020	0.080703
11:09:14.321	0.074528
11:09:14.720	0.073613
11:09:15.021	0.069751
11:09:15.321	0.072120
11:09:15.721	0.064685
11:09:16.021	0.067720
11:09:16.320	0.065232
11:09:16.721	0.053364
11:09:17.020	0.048985
11:09:17.420	0.041901
11:09:17.720	0.046866
11:09:18.121	0.054148
11:09:18.420	0.042293
11:09:18.821	0.039287
11:09:19.120	0.046869
11:09:19.521	0.039999
11:09:19.821	0.044162
11:09:20.221	0.030117
11:09:20.521	0.034334
11:09:20.920	0.043581
11:09:21.221	0.040284
11:09:21.520	0.033232
11:09:21.920	0.031153
11:09:22.221	0.024220
11:09:22.520	0.027306
11:09:22.920	0.030990
11:09:23.220	0.028199
11:09:23.521	0.024288
11:09:23.920	0.023347
11:09:24.220	0.024678
11:09:24.521	0.031887
11:09:24.920	0.029671
11:09:25.221	0.028888
11:09:25.621	0.028904
11:09:25.920	0.018856
11:09:26.320	0.035800
11:09:26.621	0.038976
11:09:27.020	0.027454
11:09:27.321	0.028787
11:09:27.621	0.027281
11:09:28.020	0.027829
11:09:28.321	0.026079
11:09:28.620	0.021160
11:09:29.021	0.018309
11:09:29.321	0.016414
11:09:29.720	0.022419
11:09:30.021	0.021751
11:09:30.321	0.023773
11:09:30.721	0.023217
11:09:31.021	0.029025
11:09:31.321	0.031151
11:09:31.720	0.025039
11:09:32.021	0.016971
11:09:32.321	0.016877
11:09:32.721	0.026020
11:09:33.020	0.014335
11:09:33.421	0.019984
11:09:33.720	0.023530
11:09:34.121	0.021050
11:09:34.421	0.023221
11:09:34.821	0.019074
11:09:35.121	0.021617
11:09:35.420	0.028330
11:09:35.821	0.024660
11:09:36.121	0.025870
11:09:36.421	0.023205
11:09:36.821	0.021698
11:09:37.121	0.024293
11:09:37.420	0.027435
11:09:37.821	0.022835
11:09:38.121	0.027521
11:09:38.421	0.032917
11:09:38.820	0.025776