Chart Recorder Data File Tue, Sep 24, 2024 10:20 AM
Time (s)	CH1 (V)  
10:10:49.777	1.169510
10:10:50.677	1.227652
10:10:50.976	1.299015
10:10:51.377	1.406318
10:10:51.676	1.438577
10:10:51.977	1.524278
10:10:52.377	1.615318
10:10:52.677	1.636136
10:10:52.977	1.651704
10:10:53.377	1.578367
10:10:53.677	1.567150
10:10:53.977	1.558882
10:10:54.377	1.522550
10:10:54.678	1.517706
10:10:55.077	1.520350
10:10:55.377	1.528755
10:10:55.777	1.538948
10:10:56.077	1.531399
10:10:56.476	1.490411
10:10:56.777	1.494081
10:10:57.077	1.526755
10:10:57.477	1.546581
10:10:57.777	1.557317
10:10:58.077	1.648175
10:10:58.477	1.653086
10:10:58.777	1.607169
10:10:59.077	1.579023
10:10:59.477	1.541289
10:10:59.777	1.526336
10:11:00.076	1.481373
10:11:00.476	1.484075
10:11:00.777	1.499877
10:11:01.176	1.499646
10:11:01.477	1.474445
10:11:01.877	1.520783
10:11:02.176	1.544521
10:11:02.577	1.545080
10:11:02.877	1.533047
10:11:03.177	1.516454
10:11:03.577	1.490975
10:11:03.877	1.477138
10:11:04.177	1.480955
10:11:04.577	1.445146
10:11:04.877	1.464411
10:11:05.277	1.551366
10:11:05.577	1.585953
10:11:05.977	1.608091
10:11:06.278	1.652752
10:11:06.577	1.698395
10:11:06.976	1.733829
10:11:07.277	1.764335
10:11:07.677	1.787323
10:11:07.977	1.831919
10:11:08.376	1.920583
10:11:08.677	1.974969
10:11:09.077	2.081420
10:11:09.377	2.140641
10:11:09.776	2.367344
10:11:11.077	2.419140
10:11:11.377	2.433920
10:11:11.777	2.479480
10:11:12.076	2.539703
10:11:12.377	2.612591
10:11:12.777	2.715086
10:11:13.076	2.754623
10:11:13.377	2.823097
10:11:13.777	2.928481
10:11:14.077	2.969127
10:11:14.377	3.046181
10:11:14.777	3.146621
10:11:15.076	3.181016
10:11:15.377	3.277580
10:11:15.777	3.324291
10:11:16.077	3.309639
10:11:16.377	3.357665
10:11:16.777	3.404391
10:11:17.078	3.410531
10:11:17.477	3.391548
10:11:17.776	3.321171
10:11:18.077	3.299325
10:11:18.477	3.188030
10:11:18.777	3.141222
10:11:19.176	3.076432
10:11:19.477	3.031578
10:11:19.877	2.993349
10:11:20.177	2.976739
10:11:20.477	2.942883
10:11:20.877	2.926261
10:11:21.177	2.915039
10:11:21.476	2.874924
10:11:21.877	2.976414
10:11:22.177	3.005393
10:11:22.477	3.051817
10:11:22.877	3.051933
10:11:23.177	3.067138
10:11:23.577	3.075266
10:11:23.877	3.030767
10:11:24.277	3.049959
10:11:24.577	3.073106
10:11:24.977	3.087612
10:11:25.278	3.082721
10:11:25.677	3.088703
10:11:25.977	3.094671
10:11:26.277	3.051955
10:11:26.677	3.013559
10:11:26.976	3.011223
10:11:27.277	2.982942
10:11:27.677	2.983862
10:11:27.977	3.014560
10:11:28.277	2.998196
10:11:28.677	3.009639
10:11:28.977	2.997849
10:11:29.277	3.020789
10:11:29.677	3.015629
10:11:29.977	3.036720
10:11:30.377	3.068711
10:11:30.677	3.063954
10:11:31.077	3.089238
10:11:31.376	3.137821
10:11:31.777	3.227046
10:11:32.077	3.243108
10:11:32.377	3.260024
10:11:32.777	3.287020
10:11:33.077	3.269441
10:11:33.377	3.270925
10:11:33.777	3.316459
10:11:34.076	3.313309
10:11:34.377	3.224730
10:11:34.777	3.157189
10:11:35.076	3.145829
10:11:35.477	3.111327
10:11:35.777	3.091345
10:11:36.077	3.052553
10:11:36.477	3.045498
10:11:36.777	3.025875
10:11:37.177	3.015756
10:11:37.477	2.979303
10:11:37.877	2.903840
10:11:38.177	2.870802
10:11:38.476	2.824282
10:11:38.876	2.798628
10:11:39.177	2.794899
10:11:39.477	2.803038
10:11:39.877	2.772597
10:11:40.177	2.773722
10:11:40.477	2.724544
10:11:40.878	2.712351
10:11:41.177	2.720243
10:11:41.477	2.723394
10:11:41.877	2.724496
10:11:42.176	2.752466
10:11:42.477	2.758797
10:11:42.877	2.783852
10:11:43.177	2.800216
10:11:43.477	2.819226
10:11:43.877	2.797701
10:11:44.177	2.771850
10:11:44.577	2.739040
10:11:44.877	2.742765
10:11:45.277	2.722239
10:11:45.577	2.711514
10:11:45.877	2.717904
10:11:46.277	2.723920
10:11:46.577	2.729074
10:11:46.978	2.675651
10:11:47.277	2.664810
10:11:47.577	2.613511
10:11:47.977	2.629347
10:11:48.277	2.597005
10:11:48.677	2.594082
10:11:48.977	2.569980
10:11:49.277	2.545085
10:11:49.676	2.522869
10:11:49.977	2.516277
10:11:50.277	2.469771
10:11:50.677	2.454678
10:11:50.977	2.442593
10:11:51.377	2.446166
10:11:51.677	2.438520
10:11:52.077	2.436057
10:11:52.376	2.424936
10:11:52.677	2.397377
10:11:53.077	2.399473
10:11:53.377	2.395572
10:11:53.777	2.298155
10:11:54.077	2.266283
10:11:54.377	2.255394
10:11:54.777	2.165066
10:11:55.077	2.069234
10:11:55.477	1.856368
10:11:56.777	1.792134
10:11:57.077	1.759802
10:11:57.377	1.700057
10:11:57.777	1.687635
10:11:58.077	1.645377
10:11:58.378	1.617960
10:11:58.777	1.576420
10:11:59.077	1.564636
10:11:59.477	1.550462
10:11:59.777	1.565735
10:12:00.177	1.555839
10:12:00.477	1.533870
10:12:00.877	1.504276
10:12:01.177	1.487606
10:12:01.477	1.492066
10:12:01.877	1.465031
10:12:02.177	1.466768
10:12:02.477	1.474059
10:12:02.877	1.469492
10:12:03.177	1.494232
10:12:03.577	1.544716
10:12:03.877	1.578493
10:12:04.277	1.592396
10:12:04.577	1.603145
10:12:04.877	1.630371
10:12:05.278	1.643807
10:12:05.577	1.667158
10:12:05.977	1.704370
10:12:06.277	1.729428
10:12:06.677	1.746183
10:12:06.977	1.789504
10:12:07.377	1.818276
10:12:07.677	1.841714
10:12:08.077	1.869259
10:12:08.377	1.849961
10:12:08.677	1.860395
10:12:09.077	1.851092
10:12:09.377	1.845186
10:12:09.777	1.826553
10:12:10.077	1.801195
10:12:10.477	1.784273
10:12:10.777	1.829251
10:12:11.177	1.825886
10:12:11.477	1.771276
10:12:11.777	1.791554
10:12:12.177	1.780736
10:12:12.477	1.769181
10:12:12.777	1.744484
10:12:13.177	1.617136
10:12:13.477	1.660393
10:12:13.877	1.630055
10:12:14.177	1.610740
10:12:14.577	1.560212
10:12:14.877	1.534879
10:12:15.277	1.606728
10:12:15.577	1.612854
10:12:15.977	1.622251
10:12:16.277	1.671566
10:12:16.578	1.693113
10:12:16.977	1.724040
10:12:17.277	1.833268
10:12:17.677	1.864046
10:12:17.977	1.903082
10:12:18.277	1.982382
10:12:18.677	2.028205
10:12:18.977	2.094213
10:12:19.377	2.150913
10:12:19.677	2.197450
10:12:19.977	2.203851
10:12:21.277	2.193310
10:12:21.577	2.192842
10:12:21.977	2.170825
10:12:22.277	2.123396
10:12:22.677	2.063012
10:12:22.977	2.047732
10:12:23.377	2.046887
10:12:23.678	1.704769
10:12:24.977	1.675568
10:12:25.277	1.631112
10:12:25.577	1.579069
10:12:25.977	1.575276
10:12:26.277	1.541805
10:12:26.677	1.498789
10:12:26.977	1.460912
10:12:27.377	1.426035
10:12:27.677	1.418676
10:12:28.077	1.460245
10:12:28.377	1.442519
10:12:28.677	1.511746
10:12:29.077	1.483682
10:12:29.377	1.480803
10:12:29.777	1.465160
10:12:30.077	1.474849
10:12:30.477	1.539216
10:12:30.777	1.553512
10:12:31.077	1.665387
10:12:31.477	1.844025
10:12:31.777	1.892009
10:12:32.177	2.014093
10:12:32.477	2.124822
10:12:32.777	2.143346
10:12:33.177	2.369933
10:12:34.477	2.343271
10:12:34.777	2.284684
10:12:35.177	2.209483
10:12:35.477	2.126098
10:12:35.777	2.064402
10:12:36.177	1.856786
10:12:37.477	1.802395
10:12:37.777	1.737056
10:12:38.177	1.695694
10:12:38.477	1.635306
10:12:38.877	1.604873
10:12:39.177	1.551987
10:12:39.577	1.504711
10:12:39.877	1.479471
10:12:40.278	1.433658
10:12:40.577	1.413036
10:12:40.977	1.401611
10:12:41.277	1.387694
10:12:41.677	1.373164
10:12:41.977	1.396456
10:12:42.377	1.351939
10:12:42.677	1.336799
10:12:42.977	1.323720
10:12:43.378	1.399830
10:12:43.677	1.389611
10:12:43.978	1.309187
10:12:44.378	1.209351
10:12:44.677	1.199344
10:12:44.977	1.208237
10:12:45.377	1.152938
10:12:45.677	1.104531
10:12:46.077	1.076937
10:12:46.378	1.033118
10:12:46.677	1.048210
10:12:47.077	1.088536
10:12:47.377	1.103641
10:12:47.677	1.153043
10:12:48.077	1.202594
10:12:48.377	1.218534
10:12:48.677	1.223551
10:12:49.077	1.223981
10:12:49.377	1.250061
10:12:49.777	1.329817
10:12:50.077	1.362741
10:12:50.477	1.367858
10:12:50.777	1.371945
10:12:51.078	1.352466
10:12:51.477	1.305854
10:12:51.777	1.280938
10:12:52.177	1.238334
10:12:52.477	1.247142
10:12:52.877	1.212435
10:12:53.177	1.205164
10:12:53.577	1.185793
10:12:53.877	1.126586
10:12:54.177	1.086185
10:12:54.577	1.069408
10:12:54.878	1.057663
10:12:55.277	1.031272
10:12:55.577	1.024879
10:12:55.877	1.026225
10:12:56.277	1.018496
10:12:56.577	0.999508
10:12:56.977	0.990943
10:12:57.277	0.984009
10:12:57.577	0.975128
10:12:57.977	0.951634
10:12:58.277	0.931942
10:12:58.677	0.910082
10:12:58.977	0.921980
10:12:59.377	0.935525
10:12:59.677	0.932469
10:13:00.077	0.926080
10:13:00.378	0.947861
10:13:00.777	0.943133
10:13:01.077	0.950490
10:13:01.477	0.970168
10:13:01.777	1.020709
10:13:02.178	1.010577
10:13:02.477	1.028636
10:13:02.778	1.018905
10:13:03.177	1.042280
10:13:03.478	1.107630
10:13:03.877	1.190117
10:13:04.177	1.239930
10:13:04.477	1.438944
10:13:04.877	1.610079
10:13:05.177	1.703049
10:13:05.577	1.906053
10:13:05.878	2.114356
10:13:06.277	2.596982
10:13:07.577	2.678753
10:13:07.877	2.712624
10:13:08.277	2.695995
10:13:08.578	2.643039
10:13:08.877	2.549337
10:13:09.278	2.425359
10:13:09.577	2.376043
10:13:09.878	2.320087
10:13:10.277	2.352232
10:13:10.577	2.313745
10:13:10.877	2.218765
10:13:11.277	2.117212
10:13:11.577	2.079196
10:13:11.977	2.009534
10:13:12.277	1.664497
10:13:13.577	1.586385
10:13:13.878	1.515023
10:13:14.177	1.479499
10:13:14.578	1.417359
10:13:14.877	1.369454
10:13:15.178	1.337118
10:13:15.577	1.283549
10:13:15.877	1.235921
10:13:16.278	1.181356
10:13:16.577	1.169927
10:13:16.878	1.152620
10:13:17.277	1.145820
10:13:17.577	1.129801
10:13:17.877	1.101370
10:13:18.277	1.059830
10:13:18.578	1.045514
10:13:18.878	1.028154
10:13:19.278	0.992617
10:13:19.577	0.964827
10:13:19.978	0.941906
10:13:20.278	0.958153
10:13:20.677	0.954905
10:13:20.978	0.958837
10:13:21.277	0.943610
10:13:21.678	0.929343
10:13:21.978	0.933267
10:13:22.378	0.926501
10:13:22.677	0.921282
10:13:23.078	0.916512
10:13:23.377	0.899827
10:13:23.777	0.896244
10:13:24.078	0.893057
10:13:24.477	0.878274
10:13:24.777	0.877657
10:13:25.178	0.877115
10:13:25.478	0.878543
10:13:25.877	0.901890
10:13:26.178	0.911450
10:13:26.577	0.905312
10:13:26.878	0.901447
10:13:27.277	0.908406
10:13:27.577	0.905295
10:13:27.877	0.899240
10:13:28.277	0.917456
10:13:28.578	0.953627
10:13:28.878	0.964673
10:13:29.277	0.993254
10:13:29.577	1.006581
10:13:29.978	0.992234
10:13:30.277	1.024778
10:13:30.677	1.032634
10:13:30.977	1.055763
10:13:31.377	1.063450
10:13:31.678	1.050304
10:13:31.978	1.051314
10:13:32.377	1.064784
10:13:32.678	1.099677
10:13:33.078	1.082765
10:13:33.378	1.083398
10:13:33.777	1.078754
10:13:34.077	1.083639
10:13:34.478	1.062530
10:13:34.778	1.057159
10:13:35.077	1.064377
10:13:35.478	1.086981
10:13:35.777	1.095752
10:13:36.077	1.112801
10:13:36.478	1.102067
10:13:36.777	1.099837
10:13:37.178	1.109306
10:13:37.577	1.119229
10:13:37.878	1.167501
10:13:38.177	1.198701
10:13:38.578	1.204171
10:13:38.878	1.233296
10:13:39.178	1.258143
10:13:39.577	1.285709
10:13:39.877	1.332858
10:13:40.177	1.361047
10:13:40.578	1.343475
10:13:40.877	1.341284
10:13:41.278	1.298666
10:13:41.577	1.276281
10:13:41.977	1.247041
10:13:42.278	1.221088
10:13:42.678	1.190689
10:13:42.977	1.183535
10:13:43.278	1.166718
10:13:43.677	1.132555
10:13:43.977	1.091145
10:13:44.378	1.020111
10:13:44.678	0.996597
10:13:44.978	0.987097
10:13:45.377	0.966470
10:13:45.677	0.960754
10:13:45.977	0.967904
10:13:46.377	0.954582
10:13:46.677	0.963854
10:13:46.977	0.960161
10:13:47.378	0.908246
10:13:47.677	0.902239
10:13:48.078	0.911002
10:13:48.377	0.897518
10:13:48.777	0.886359
10:13:49.078	0.890049
10:13:49.378	0.890681
10:13:49.777	0.901356
10:13:50.078	0.864354
10:13:50.378	0.845294
10:13:50.778	0.826586
10:13:51.078	0.825389
10:13:51.478	0.840062
10:13:51.778	0.848392
10:13:52.077	0.867361
10:13:52.477	0.867273
10:13:52.778	0.887686
10:13:53.078	0.866490
10:13:53.478	0.908868
10:13:53.777	0.888819
10:13:54.078	0.852604
10:13:54.478	0.848007
10:13:54.778	0.861135
10:13:55.077	0.843085
10:13:55.478	0.854340
10:13:55.778	0.867136
10:13:56.077	0.846343
10:13:56.477	0.835426
10:13:56.778	0.834790
10:13:57.077	0.832526
10:13:57.477	0.851504
10:13:57.778	0.859788
10:13:58.178	0.859711
10:13:58.479	0.848121
10:13:58.878	0.816828
10:13:59.178	0.819743
10:13:59.577	0.857724
10:13:59.878	0.865578
10:14:00.178	0.873838
10:14:00.578	0.890034
10:14:00.878	0.886504
10:14:01.178	0.909150
10:14:01.578	0.887269
10:14:01.878	0.880671
10:14:02.179	0.894699
10:14:02.578	0.902607
10:14:02.877	0.887639
10:14:03.178	0.883473
10:14:03.578	0.877755
10:14:03.877	0.892006
10:14:04.178	0.914119
10:14:04.578	0.913427
10:14:04.878	0.900213
10:14:05.278	0.954796
10:14:05.578	0.984444
10:14:05.978	0.998116
10:14:06.278	0.990486
10:14:06.678	0.984070
10:14:06.977	0.982150
10:14:07.377	0.988593
10:14:07.679	1.010831
10:14:08.078	1.039188
10:14:08.377	1.069620
10:14:08.778	1.076757
10:14:09.078	1.059154
10:14:09.478	1.034804
10:14:09.777	1.028031
10:14:10.177	1.002636
10:14:10.478	0.989490
10:14:10.877	0.953927
10:14:11.178	0.947377
10:14:11.478	0.929885
10:14:11.878	0.901374
10:14:12.178	0.896460
10:14:12.578	0.911774
10:14:12.878	0.901182
10:14:13.178	0.878364
10:14:13.578	0.881213
10:14:13.878	0.889655
10:14:14.178	0.890765
10:14:14.577	0.924999
10:14:14.878	0.895414
10:14:15.178	0.896418
10:14:15.579	0.875765
10:14:15.878	0.877020
10:14:16.278	0.896589
10:14:16.578	0.904338
10:14:16.977	0.878632
10:14:17.278	0.916338
10:14:17.578	0.914070
10:14:17.977	0.918952
10:14:18.278	0.927756
10:14:18.578	0.946606
10:14:18.978	0.948821
10:14:19.278	0.938886
10:14:19.678	0.937699
10:14:19.978	0.920666
10:14:20.378	0.954002
10:14:20.678	0.951811
10:14:21.077	0.962533
10:14:21.378	0.946083
10:14:21.778	0.934102
10:14:22.077	0.909627
10:14:22.478	0.899719
10:14:22.778	0.920710
10:14:23.178	0.926833
10:14:23.477	0.941571
10:14:23.878	0.897152
10:14:24.178	0.886726
10:14:24.478	0.843431
10:14:24.878	0.851351
10:14:25.178	0.867080
10:14:25.478	0.867752
10:14:25.878	0.875533
10:14:26.178	0.891068
10:14:26.578	0.925587
10:14:26.878	0.934831
10:14:27.277	0.899251
10:14:27.578	0.893612
10:14:27.978	0.859883
10:14:28.278	0.843655
10:14:28.578	0.826286
10:14:28.977	0.841175
10:14:29.278	0.842489
10:14:29.677	0.828886
10:14:29.978	0.864439
10:14:30.278	0.884665
10:14:30.677	0.879484
10:14:30.978	0.872171
10:14:31.278	0.929130
10:14:31.678	0.925890
10:14:31.978	0.869761
10:14:32.277	0.858963
10:14:32.678	0.831116
10:14:32.977	0.822638
10:14:33.378	0.827588
10:14:33.677	0.827347
10:14:34.078	0.861658
10:14:34.378	0.874790
10:14:34.778	0.895609
10:14:35.078	0.894783
10:14:35.478	0.864812
10:14:35.778	0.864447
10:14:36.178	0.862274
10:14:36.478	0.859850
10:14:36.877	0.841416
10:14:37.178	0.848247
10:14:37.577	0.866066
10:14:37.878	0.875743
10:14:38.278	0.872535
10:14:38.578	0.857972
10:14:38.978	0.882169
10:14:39.278	0.904375
10:14:39.578	0.903376
10:14:39.978	0.921796
10:14:40.277	0.916859
10:14:40.678	0.921418
10:14:40.978	0.930628
10:14:41.378	0.947786
10:14:41.678	0.971149
10:14:41.977	0.984956
10:14:42.377	0.981173
10:14:42.678	1.001761
10:14:43.078	1.030380
10:14:43.378	1.074277
10:14:43.678	1.082151
10:14:44.078	1.126674
10:14:44.377	1.156664
10:14:44.778	1.154964
10:14:45.078	1.143878
10:14:45.378	1.174845
10:14:45.778	1.178169
10:14:46.078	1.174079
10:14:46.378	1.164712
10:14:46.778	1.115175
10:14:47.077	1.078153
10:14:47.478	1.071690
10:14:47.778	1.049826
10:14:48.178	1.043845
10:14:48.478	0.988798
10:14:48.878	0.937506
10:14:49.178	0.925119
10:14:49.478	0.911668
10:14:49.877	0.910595
10:14:50.178	0.904306
10:14:50.578	0.888871
10:14:50.878	0.866954
10:14:51.278	0.856870
10:14:51.578	0.864137
10:14:51.978	0.857349
10:14:52.279	0.866532
10:14:52.578	0.856846
10:14:52.977	0.823954
10:14:53.277	0.826693
10:14:53.578	0.816840
10:14:53.978	0.793749
10:14:54.277	0.785808
10:14:54.678	0.808618
10:14:54.978	0.817509
10:14:55.378	0.808636
10:14:55.678	0.802476
10:14:56.078	0.841382
10:14:56.378	0.804638
10:14:56.778	0.802534
10:14:57.078	0.796443
10:14:57.378	0.807809
10:14:57.778	0.813792
10:14:58.078	0.809736
10:14:58.478	0.810162
10:14:58.778	0.874841
10:14:59.178	0.897433
10:14:59.478	0.881958
10:14:59.778	0.848063
10:15:00.178	0.813240
10:15:00.478	0.823616
10:15:00.778	0.828836
10:15:01.178	0.807730
10:15:01.478	0.797230
10:15:01.878	0.792582
10:15:02.178	0.827041
10:15:02.479	0.801039
10:15:02.878	0.800344
10:15:03.178	0.793991
10:15:03.477	0.813573
10:15:03.878	0.851297
10:15:04.178	0.851501
10:15:04.478	0.828902
10:15:04.878	0.793944
10:15:05.178	0.815792
10:15:05.579	0.841648
10:15:05.878	0.835704
10:15:06.278	0.818921
10:15:06.578	0.787057
10:15:06.878	0.774047
10:15:07.278	0.795738
10:15:07.578	0.772226
10:15:07.878	0.821605
10:15:08.278	0.848617
10:15:08.578	0.853783
10:15:08.978	0.823412
10:15:09.278	0.800114
10:15:09.678	0.791496
10:15:09.978	0.811703
10:15:10.378	0.818450
10:15:10.678	0.804592
10:15:11.078	0.828716
10:15:11.378	0.820271
10:15:11.679	0.824122
10:15:12.078	0.838514
10:15:12.378	0.824523
10:15:12.678	0.823883
10:15:13.078	0.840463
10:15:13.378	0.854303
10:15:13.678	0.857624
10:15:14.078	0.847677
10:15:14.378	0.857420
10:15:14.679	0.847619
10:15:15.078	0.844772
10:15:15.378	0.865456
10:15:15.778	0.850898
10:15:16.078	0.843543
10:15:16.478	0.821107
10:15:16.779	0.844358
10:15:17.178	0.829385
10:15:17.478	0.826517
10:15:17.778	0.813576
10:15:18.178	0.802220
10:15:18.478	0.845788
10:15:18.778	0.857138
10:15:19.178	0.883076
10:15:19.478	0.860594
10:15:19.878	0.855257
10:15:20.178	0.832704
10:15:20.578	0.844286
10:15:20.878	0.793133
10:15:21.178	0.784349
10:15:21.578	0.813921
10:15:21.878	0.804284
10:15:22.278	0.797384
10:15:22.578	0.791310
10:15:22.978	0.798424
10:15:23.278	0.800891
10:15:23.678	0.796241
10:15:23.978	0.800278
10:15:24.378	0.811499
10:15:24.678	0.817711
10:15:25.078	0.805282
10:15:25.378	0.802747
10:15:25.678	0.792058
10:15:26.078	0.796394
10:15:26.378	0.794432
10:15:26.778	0.797373
10:15:27.078	0.756110
10:15:27.478	0.744568
10:15:27.778	0.728583
10:15:28.178	0.768454
10:15:28.478	0.744805
10:15:28.778	0.734460
10:15:29.179	0.770420
10:15:29.478	0.798075
10:15:29.878	0.787207
10:15:30.178	0.801093
10:15:30.578	0.807260
10:15:30.878	0.801041
10:15:31.278	0.805898
10:15:31.578	0.796206
10:15:31.878	0.800335
10:15:32.278	0.815275
10:15:32.578	0.841630
10:15:32.878	0.841735
10:15:33.278	0.848901
10:15:33.578	0.858242
10:15:33.978	0.837600
10:15:34.278	0.802483
10:15:34.578	0.801628
10:15:34.979	0.791862
10:15:35.378	0.794850
10:15:35.678	0.804333
10:15:35.978	0.800926
10:15:36.379	0.795119
10:15:36.678	0.786225
10:15:37.078	0.776935
10:15:37.378	0.797130
10:15:37.778	0.801659
10:15:38.078	0.770581
10:15:38.478	0.767316
10:15:38.778	0.777533
10:15:39.178	0.790319
10:15:39.478	0.782411
10:15:39.778	0.782268
10:15:40.178	0.822786
10:15:40.478	0.838598
10:15:40.878	0.808431
10:15:41.178	0.807896
10:15:41.579	0.817898
10:15:41.878	0.817661
10:15:42.278	0.797200
10:15:42.578	0.810780
10:15:42.878	0.818249
10:15:43.278	0.789921
10:15:43.578	0.763352
10:15:43.978	0.800431
10:15:44.278	0.796209
10:15:44.678	0.749015
10:15:44.978	0.801295
10:15:45.378	0.847445
10:15:45.678	0.866496
10:15:45.978	0.866743
10:15:46.378	0.867143
10:15:46.678	0.881392
10:15:46.979	0.893203
10:15:47.378	0.868938
10:15:47.678	0.863531
10:15:48.078	0.862157
10:15:48.378	0.855312
10:15:48.778	0.840135
10:15:49.078	0.809356
10:15:49.478	0.823900
10:15:49.778	0.829390
10:15:50.079	0.791570
10:15:50.479	0.769459
10:15:50.778	0.766937
10:15:51.178	0.750128
10:15:51.478	0.755671
10:15:51.878	0.789618
10:15:52.278	0.806326
10:15:52.578	0.805251
10:15:52.879	0.835172
10:15:53.278	0.822724
10:15:53.578	0.814838
10:15:53.878	0.802418
10:15:54.278	0.843892
10:15:54.578	0.865262
10:15:54.978	0.833254
10:15:55.278	0.836019
10:15:55.678	0.839762
10:15:55.978	0.844073
10:15:56.379	0.829437
10:15:56.678	0.822849
10:15:56.978	0.815321
10:15:57.378	0.794778
10:15:57.678	0.795880
10:15:58.078	0.797882
10:15:58.378	0.800687
10:15:58.778	0.773013
10:15:59.078	0.779847
10:15:59.478	0.796212
10:15:59.778	0.781065
10:16:00.078	0.766932
10:16:00.478	0.777246
10:16:00.778	0.806835
10:16:01.078	0.804370
10:16:01.478	0.817345
10:16:01.778	0.813168
10:16:02.178	0.830069
10:16:02.479	0.816684
10:16:02.878	0.800752
10:16:03.178	0.807907
10:16:03.579	0.801734
10:16:03.878	0.814419
10:16:04.279	0.822997
10:16:04.578	0.859134
10:16:04.978	0.870916
10:16:05.378	0.893790
10:16:05.678	0.876813
10:16:06.078	0.855461
10:16:06.378	0.846660
10:16:06.778	0.842592
10:16:07.079	0.851716
10:16:07.478	0.850023
10:16:07.779	0.863949
10:16:08.078	0.857861
10:16:08.478	0.843646
10:16:08.778	0.854671
10:16:09.178	0.865395
10:16:09.478	0.864617
10:16:09.879	0.838017
10:16:10.179	0.801950
10:16:10.578	0.769464
10:16:10.878	0.829718
10:16:11.179	0.847070
10:16:11.579	0.824506
10:16:11.878	0.820047
10:16:12.178	0.817627
10:16:12.578	0.819546
10:16:12.879	0.817108
10:16:13.279	0.824837
10:16:13.578	0.806913
10:16:13.878	0.813971
10:16:14.278	0.819846
10:16:14.678	0.766258
10:16:14.979	0.732589
10:16:15.278	0.762421
10:16:15.678	0.764624
10:16:15.978	0.761031
10:16:16.379	0.803212
10:16:16.679	0.797503
10:16:16.978	0.789898
10:16:17.378	0.783465
10:16:17.678	0.773872
10:16:17.978	0.773921
10:16:18.378	0.813470
10:16:18.679	0.814192
10:16:19.078	0.817175
10:16:19.378	0.818037
10:16:19.778	0.792890
10:16:20.079	0.800559
10:16:20.478	0.801342
10:16:20.779	0.812649
10:16:21.078	0.792434
10:16:21.478	0.799539
10:16:21.778	0.790747
10:16:22.078	0.809401
10:16:22.478	0.788852
10:16:22.778	0.781304
10:16:23.079	0.807742
10:16:23.479	0.856315
10:16:23.779	0.894159
10:16:24.178	0.883814
10:16:24.478	0.850498
10:16:24.878	0.844083
10:16:25.179	0.875583
10:16:25.478	0.871007
10:16:25.878	0.861556
10:16:26.179	0.870063
10:16:26.578	0.879336
10:16:26.878	0.890678
10:16:27.278	0.893175
10:16:27.578	0.845672
10:16:27.978	0.812248
10:16:28.279	0.792588
10:16:28.678	0.785171
10:16:28.978	0.778931
10:16:29.379	0.833970
10:16:29.679	0.836944
10:16:30.078	0.876191
10:16:30.379	0.826953
10:16:30.778	0.853631
10:16:31.078	0.829609
10:16:31.378	0.812564
10:16:31.778	0.805892
10:16:32.078	0.793139
10:16:32.478	0.791058
10:16:32.779	0.785621
10:16:33.078	0.776926
10:16:33.478	0.756966
10:16:33.778	0.750630
10:16:34.179	0.729077
10:16:34.478	0.760514
10:16:34.878	0.785758
10:16:35.178	0.770403
10:16:35.578	0.757918
10:16:35.879	0.733809
10:16:36.278	0.735377
10:16:36.578	0.729889
10:16:36.979	0.751781
10:16:37.279	0.784072
10:16:37.679	0.768195
10:16:37.978	0.784188
10:16:38.379	0.757886
10:16:38.679	0.789115
10:16:39.078	0.807017
10:16:39.378	0.820040
10:16:39.679	0.800252
10:16:40.078	0.770043
10:16:40.378	0.751623
10:16:40.778	0.755021
10:16:41.078	0.772191
10:16:41.479	0.811050
10:16:41.779	0.800253
10:16:42.179	0.789461
10:16:42.479	0.808913
10:16:42.879	0.808953
10:16:43.179	0.778538
10:16:43.578	0.769491
10:16:43.878	0.769234
10:16:44.178	0.801418
10:16:44.579	0.791400
10:16:44.879	0.774828
10:16:45.279	0.769684
10:16:45.579	0.788099
10:16:45.978	0.797188
10:16:46.279	0.790760
10:16:46.678	0.740407
10:16:46.978	0.758071
10:16:47.279	0.774009
10:16:47.678	0.803124
10:16:47.978	0.783731
10:16:48.378	0.778330
10:16:48.678	0.784737
10:16:49.079	0.800521
10:16:49.378	0.807781
10:16:49.779	0.805985
10:16:50.079	0.810819
10:16:50.379	0.832347
10:16:50.779	0.809958
10:16:51.079	0.801255
10:16:51.479	0.790950
10:16:51.779	0.782965
10:16:52.179	0.792848
10:16:52.579	0.796304
10:16:52.879	0.795919
10:16:53.178	0.785244
10:16:53.579	0.783477
10:16:53.879	0.796963
10:16:54.178	0.793521
10:16:54.579	0.771663
10:16:54.879	0.796099
10:16:55.279	0.775972
10:16:55.579	0.770000
10:16:55.979	0.751183
10:16:56.279	0.732389
10:16:56.679	0.713762
10:16:56.978	0.732478
10:16:57.378	0.728882
10:16:57.679	0.732314
10:16:58.079	0.733660
10:16:58.378	0.735440
10:16:58.779	0.746227
10:16:59.079	0.736787
10:16:59.479	0.753828
10:16:59.779	0.761638
10:17:00.179	0.789146
10:17:00.478	0.800306
10:17:00.879	0.824219
10:17:01.179	0.805071
10:17:01.479	0.784460
10:17:01.879	0.804615
10:17:02.179	0.823361
10:17:02.579	0.755944
10:17:02.879	0.721699
10:17:03.279	0.671581
10:17:03.578	0.679923
10:17:03.979	0.675501
10:17:04.279	0.716353
10:17:04.679	0.751943
10:17:04.979	0.686467
10:17:05.279	0.702402
10:17:05.678	0.701329
10:17:05.979	0.759196
10:17:06.379	0.792725
10:17:06.679	0.768505
10:17:07.079	0.761210
10:17:07.379	0.770128
10:17:07.779	0.760872
10:17:08.078	0.746061
10:17:08.379	0.755158
10:17:08.780	0.782672
10:17:09.079	0.776672
10:17:09.479	0.819062
10:17:09.779	0.838486
10:17:10.178	0.850688
10:17:10.478	0.775927
10:17:10.879	0.824219
10:17:11.179	0.822405
10:17:11.479	0.813640
10:17:11.879	0.787240
10:17:12.179	0.795827
10:17:12.479	0.805229
10:17:12.879	0.815378
10:17:13.178	0.823718
10:17:13.579	0.820697
10:17:13.879	0.823314
10:17:14.279	0.800190
10:17:14.578	0.814756
10:17:14.978	0.814696
10:17:15.280	0.812082
10:17:15.579	0.781991
10:17:15.979	0.768235
10:17:16.279	0.760551
10:17:16.679	0.766903
10:17:16.979	0.785909
10:17:17.279	0.795867
10:17:17.679	0.722480
10:17:17.979	0.712429
10:17:18.279	0.733012
10:17:18.679	0.730656
10:17:18.978	0.725785
10:17:19.379	0.734337
10:17:19.679	0.719878
10:17:20.079	0.716893
10:17:20.379	0.718293
10:17:20.779	0.731732
10:17:21.079	0.745854
10:17:21.379	0.759005
10:17:21.779	0.737968
10:17:22.079	0.800813
10:17:22.379	0.802248
10:17:22.779	0.825560
10:17:23.079	0.824991
10:17:23.479	0.829706
10:17:23.779	0.819172
10:17:24.179	0.817755
10:17:24.479	0.780091
10:17:24.879	0.766797
10:17:25.179	0.774007
10:17:25.479	0.746009
10:17:25.878	0.718652
10:17:26.178	0.738668
10:17:26.479	0.746014
10:17:26.879	0.762994
10:17:27.179	0.757157
10:17:27.579	0.766712
10:17:27.879	0.789987
10:17:28.278	0.805774
10:17:28.579	0.788021
10:17:28.979	0.793169
10:17:29.279	0.812234
10:17:29.579	0.813610
10:17:29.979	0.796393
10:17:30.279	0.774505
10:17:30.679	0.792004
10:17:30.978	0.792273
10:17:31.379	0.768867
10:17:31.678	0.757103
10:17:32.079	0.757069
10:17:32.379	0.814933
10:17:32.679	0.810455
10:17:33.079	0.779278
10:17:33.379	0.791872
10:17:33.779	0.787691
10:17:34.079	0.775891
10:17:34.479	0.735801
10:17:34.779	0.725247
10:17:35.179	0.743157
10:17:35.479	0.726801
10:17:35.779	0.716872
10:17:36.179	0.716577
10:17:36.479	0.786890
10:17:36.779	0.788306
10:17:37.179	0.747181
10:17:37.479	0.751830
10:17:37.879	0.777261
10:17:38.179	0.785265
10:17:38.579	0.783409
10:17:38.879	0.800541
10:17:39.279	0.755435
10:17:39.579	0.753076
10:17:39.978	0.766292
10:17:40.279	0.765709
10:17:40.579	0.780149
10:17:40.979	0.778263
10:17:41.279	0.775750
10:17:41.679	0.777760
10:17:41.979	0.752960
10:17:42.379	0.727002
10:17:42.679	0.722698
10:17:43.079	0.748363
10:17:43.379	0.746703
10:17:43.679	0.731779
10:17:44.079	0.741213
10:17:44.379	0.760761
10:17:44.779	0.770141
10:17:45.079	0.781259
10:17:45.479	0.769250
10:17:45.778	0.751785
10:17:46.179	0.739905
10:17:46.479	0.744976
10:17:46.878	0.759982
10:17:47.179	0.770830
10:17:47.479	0.764433
10:17:47.879	0.741248
10:17:48.179	0.760490
10:17:48.478	0.760212
10:17:48.879	0.790885
10:17:49.179	0.763891
10:17:49.479	0.744865
10:17:49.879	0.771995
10:17:50.179	0.752654
10:17:50.579	0.749205
10:17:50.879	0.754521
10:17:51.278	0.764927
10:17:51.579	0.752804
10:17:51.979	0.739196
10:17:52.280	0.737215
10:17:52.679	0.769582
10:17:52.979	0.763462
10:17:53.279	0.753128
10:17:53.679	0.736425
10:17:53.979	0.740452
10:17:54.379	0.721501
10:17:54.679	0.731922
10:17:55.079	0.769297
10:17:55.379	0.761655
10:17:55.779	0.762131
10:17:56.079	0.772877
10:17:56.479	0.793209
10:17:56.779	0.781167
10:17:57.179	0.782446
10:17:57.479	0.764251
10:17:57.778	0.740460
10:17:58.179	0.766955
10:17:58.479	0.771404
10:17:58.779	0.784184
10:17:59.179	0.794485
10:17:59.479	0.763948
10:17:59.878	0.752807
10:18:00.179	0.763352
10:18:00.579	0.739911
10:18:00.879	0.757744
10:18:01.279	0.809012
10:18:01.578	0.798823
10:18:01.879	0.799769
10:18:02.279	0.791789
10:18:02.579	0.773625
10:18:02.979	0.772564
10:18:03.279	0.775364
10:18:03.579	0.765225
10:18:03.980	0.742203
10:18:04.279	0.740897
10:18:04.679	0.736532
10:18:04.979	0.772524
10:18:05.379	0.786175
10:18:05.679	0.774471
10:18:06.079	0.763920
10:18:06.379	0.781927
10:18:06.779	0.767325
10:18:07.079	0.764849
10:18:07.479	0.748010
10:18:07.779	0.740993
10:18:08.179	0.751017
10:18:08.479	0.761106
10:18:08.879	0.751002
10:18:09.179	0.756988
10:18:09.479	0.753053
10:18:09.878	0.770403
10:18:10.179	0.769069
10:18:10.579	0.754362
10:18:10.879	0.738553
10:18:11.179	0.746988
10:18:11.579	0.759381
10:18:11.879	0.781846
10:18:12.279	0.725230
10:18:12.578	0.715591
10:18:12.879	0.742412
10:18:13.279	0.739265
10:18:13.578	0.739173
10:18:13.979	0.751112
10:18:14.279	0.721649
10:18:14.679	0.745742
10:18:14.979	0.789396
10:18:15.379	0.797584
10:18:15.679	0.806772
10:18:16.079	0.842395
10:18:16.379	0.806184
10:18:16.779	0.765615
10:18:17.079	0.778063
10:18:17.479	0.777192
10:18:17.779	0.782692
10:18:18.079	0.784623
10:18:18.479	0.802563
10:18:18.779	0.779341
10:18:19.079	0.782899
10:18:19.479	0.771951
10:18:19.779	0.734631
10:18:20.079	0.730201
10:18:20.479	0.762600
10:18:20.779	0.784625
10:18:21.079	0.787861
10:18:21.479	0.784574
10:18:21.779	0.783745
10:18:22.079	0.788203
10:18:22.479	0.789650
10:18:22.779	0.774046
10:18:23.079	0.748712
10:18:23.479	0.757156
10:18:23.779	0.750182
10:18:24.179	0.748211
10:18:24.479	0.728027
10:18:24.779	0.758225
10:18:25.179	0.803168
10:18:25.479	0.809965
10:18:25.779	0.817251
10:18:26.179	0.784369
10:18:26.479	0.732873
10:18:26.779	0.725558
10:18:27.179	0.746823
10:18:27.479	0.798008
10:18:27.879	0.779908
10:18:28.179	0.781938
10:18:28.579	0.716696
10:18:28.879	0.734585
10:18:29.279	0.730972
10:18:29.579	0.737207
10:18:29.979	0.763862
10:18:30.279	0.785642
10:18:30.679	0.830838
10:18:30.979	0.828707
10:18:31.379	0.832152
10:18:31.680	0.816689
10:18:31.979	0.826694
10:18:32.379	0.839888
10:18:32.679	0.830078
10:18:32.979	0.793735
10:18:33.379	0.811228
10:18:33.679	0.820651
10:18:34.079	0.852274
10:18:34.379	0.827885
10:18:34.779	0.833393
10:18:35.079	0.817440
10:18:35.479	0.852444
10:18:35.779	0.876075
10:18:36.079	0.880236
10:18:36.479	0.830556
10:18:36.779	0.837969
10:18:37.080	0.815108
10:18:37.479	0.816400
10:18:37.779	0.815918
10:18:38.079	0.819555
10:18:38.479	0.869988
10:18:38.779	0.889669
10:18:39.079	0.895670
10:18:39.479	0.893004
10:18:39.779	0.894893
10:18:40.079	0.915894
10:18:40.479	0.912301
10:18:40.779	0.916499
10:18:41.080	0.916819
10:18:41.479	0.941786
10:18:41.779	0.927472
10:18:42.179	0.926864
10:18:42.479	0.943366
10:18:42.879	0.929469
10:18:43.179	0.918555
10:18:43.579	0.923940
10:18:43.879	0.963832
10:18:44.179	0.998315
10:18:44.579	1.031657
10:18:44.879	1.058394
10:18:45.280	1.060388
10:18:45.579	1.063679
10:18:45.879	1.081386
10:18:46.279	1.076487
10:18:46.579	1.104677
10:18:46.879	1.136719
10:18:47.279	1.135699
10:18:47.579	1.115843
10:18:47.979	1.068713
10:18:48.280	1.066162
10:18:48.679	1.042936
10:18:48.979	1.027942
10:18:49.379	1.030695
10:18:49.679	1.022433
10:18:49.979	0.975239
10:18:50.379	0.932792
10:18:50.679	0.921949
10:18:51.079	0.936394
10:18:51.379	0.908719
10:18:51.779	0.902914
10:18:52.079	0.894167
10:18:52.479	0.861053
10:18:52.779	0.858909
10:18:53.179	0.894195
10:18:53.479	0.913821
10:18:53.880	0.891323
10:18:54.179	0.901176
10:18:54.579	0.916804
10:18:54.879	0.916417
10:18:55.179	0.941025
10:18:55.579	0.946998
10:18:55.879	0.914533
10:18:56.179	0.919630
10:18:56.579	0.929530
10:18:56.879	0.926949
10:18:57.179	0.942477
10:18:57.579	0.901721
10:18:57.879	0.896043
10:18:58.279	0.903808
10:18:58.579	0.895185
10:18:58.979	0.877838
10:18:59.279	0.861411
10:18:59.679	0.849530
10:18:59.979	0.842261
10:19:00.279	0.842623
10:19:00.679	0.855542
10:19:00.979	0.862211
10:19:01.279	0.852943
10:19:01.679	0.849616
10:19:01.979	0.854855
10:19:02.279	0.836667
10:19:02.680	0.832677
10:19:02.979	0.844727
10:19:03.379	0.850669
10:19:03.679	0.838978
10:19:03.980	0.799216
10:19:04.380	0.803616
10:19:04.679	0.817678
10:19:05.079	0.823977
10:19:05.379	0.867615
10:19:05.779	0.834139
10:19:06.079	0.817830
10:19:06.479	0.794580
10:19:06.779	0.797687
10:19:07.179	0.842162
10:19:07.479	0.848667
10:19:07.879	0.920881
10:19:08.179	0.898490
10:19:08.579	0.906996
10:19:08.879	0.935477
10:19:09.279	0.954935
10:19:09.579	0.952037
10:19:09.979	0.981990
10:19:10.279	1.046898
10:19:10.679	1.073246
10:19:10.979	1.067441
10:19:11.279	1.118303
10:19:11.679	1.138180
10:19:11.979	1.156413
10:19:12.379	1.180301
10:19:12.679	1.203514
10:19:12.979	1.234025
10:19:13.380	1.254989
10:19:13.679	1.255263
10:19:13.979	1.244839
10:19:14.380	1.251251
10:19:14.679	1.243445
10:19:14.979	1.246274
10:19:15.379	1.240689
10:19:15.680	1.211461
10:19:15.979	1.164708
10:19:16.379	1.137617
10:19:16.680	1.130890
10:19:17.080	1.106965
10:19:17.379	1.070000
10:19:17.779	1.017155
10:19:18.079	1.000796
10:19:18.379	1.002728
10:19:18.779	0.985313
10:19:19.079	0.976960
10:19:19.379	0.936162
10:19:19.779	0.927632
10:19:20.080	0.935832
10:19:20.479	0.907771
10:19:20.779	0.870466
10:19:21.179	0.874659
10:19:21.479	0.874363
10:19:21.879	0.856073
10:19:22.180	0.810304
10:19:22.479	0.814688
10:19:22.879	0.807378
10:19:23.179	0.798585
10:19:23.579	0.802651
10:19:23.880	0.817169
10:19:24.279	0.785745
10:19:24.579	0.777930
10:19:24.979	0.759517
10:19:25.279	0.791824
10:19:25.679	0.801769
10:19:25.980	0.801128
10:19:26.280	0.810462
10:19:26.680	0.803278
10:19:26.979	0.810146
10:19:27.380	0.804929
10:19:27.680	0.793693
10:19:28.079	0.797569
10:19:28.379	0.799311
10:19:28.779	0.820289
10:19:29.080	0.821065
10:19:29.379	0.804804
10:19:29.780	0.790483
10:19:30.080	0.746150
10:19:30.480	0.746372
10:19:30.779	0.739612
10:19:31.179	0.744996
10:19:31.479	0.767284
10:19:31.879	0.795045
10:19:32.180	0.735948
10:19:32.479	0.700117
10:19:32.879	0.672223
10:19:33.179	0.702191
10:19:33.579	0.737898
10:19:33.879	0.761430
10:19:34.179	0.795765
10:19:34.579	0.753310
10:19:34.879	0.754117
10:19:35.179	0.791482
10:19:35.580	0.782883
10:19:35.879	0.773810
10:19:36.180	0.743768
10:19:36.580	0.747807
10:19:36.879	0.742476
10:19:37.179	0.746903
10:19:37.579	0.771746
10:19:37.880	0.772199
10:19:38.280	0.764376
10:19:38.579	0.759359
10:19:38.980	0.759677
10:19:39.279	0.802323
10:19:39.679	0.735975
10:19:39.979	0.732058
10:19:40.380	0.736021
10:19:40.679	0.748726
10:19:40.980	0.746624
10:19:41.379	0.776419
10:19:41.679	0.785712
10:19:42.079	0.786452
10:19:42.379	0.775723
10:19:42.679	0.767522
10:19:43.079	0.772999
10:19:43.379	0.780345
10:19:43.780	0.774460
10:19:44.080	0.776336
10:19:44.380	0.766420
10:19:44.780	0.765790
10:19:45.080	0.767127
10:19:45.480	0.722266
10:19:45.779	0.727869
10:19:46.179	0.725893
10:19:46.480	0.732221
10:19:46.879	0.700882
10:19:47.179	0.676437