Chart Recorder Data File Tue, Sep 24, 2024 11:04 AM
Time (s)	CH1 (V)  
10:46:17.388	0.720493
10:46:18.188	0.717315
10:46:18.488	0.734993
10:46:18.888	0.699656
10:46:19.188	0.697780
10:46:19.488	0.708585
10:46:19.888	0.687592
10:46:20.188	0.671791
10:46:20.588	0.610323
10:46:20.888	0.548914
10:46:21.288	0.501814
10:46:21.588	0.505531
10:46:21.988	0.513221
10:46:22.288	0.525028
10:46:22.688	0.539234
10:46:22.988	0.534663
10:46:23.289	0.515593
10:46:23.688	0.511022
10:46:23.988	0.516274
10:46:24.388	0.520788
10:46:24.689	0.571477
10:46:25.088	0.587100
10:46:25.388	0.552000
10:46:25.788	0.507603
10:46:26.088	0.539574
10:46:26.388	0.540136
10:46:26.788	0.562842
10:46:27.088	0.563718
10:46:27.488	0.561002
10:46:27.788	0.549850
10:46:28.188	0.554467
10:46:28.488	0.564008
10:46:28.888	0.537716
10:46:29.188	0.545605
10:46:29.588	0.549246
10:46:29.888	0.552053
10:46:30.288	0.505865
10:46:30.588	0.483641
10:46:30.988	0.562014
10:46:31.288	0.640114
10:46:31.688	0.639556
10:46:31.988	0.631581
10:46:32.389	0.657387
10:46:32.688	0.679182
10:46:33.088	0.652838
10:46:33.388	0.709764
10:46:33.789	0.681100
10:46:34.088	0.674739
10:46:34.488	0.684949
10:46:34.788	0.694145
10:46:35.188	0.722701
10:46:35.488	0.719128
10:46:35.888	0.705334
10:46:36.188	0.714283
10:46:36.588	0.731961
10:46:36.888	0.711732
10:46:37.288	0.688407
10:46:37.588	0.692747
10:46:37.988	0.676395
10:46:38.288	0.689322
10:46:38.688	0.726841
10:46:38.988	0.686852
10:46:39.388	0.700562
10:46:39.688	0.695559
10:46:40.088	0.686076
10:46:40.388	0.653802
10:46:40.788	0.671036
10:46:41.088	0.677487
10:46:41.488	0.665175
10:46:41.788	0.670880
10:46:42.188	0.695335
10:46:42.488	0.657592
10:46:42.888	0.677995
10:46:43.188	0.691694
10:46:43.489	0.694262
10:46:43.888	0.691541
10:46:44.188	0.680967
10:46:44.588	0.692080
10:46:44.888	0.706383
10:46:45.288	0.665145
10:46:45.588	0.672928
10:46:45.988	0.689580
10:46:46.288	0.651860
10:46:46.688	0.676075
10:46:46.988	0.691839
10:46:47.388	0.666118
10:46:47.688	0.648993
10:46:48.088	0.686781
10:46:48.388	0.673762
10:46:48.788	0.636247
10:46:49.088	0.641192
10:46:49.488	0.646624
10:46:49.788	0.666374
10:46:50.188	0.675738
10:46:50.488	0.650909
10:46:50.888	0.619446
10:46:51.188	0.639667
10:46:51.588	0.639924
10:46:51.888	0.638585
10:46:52.288	0.660456
10:46:52.588	0.631713
10:46:52.988	0.650791
10:46:53.288	0.642983
10:46:53.688	0.624050
10:46:53.988	0.640364
10:46:54.388	0.636223
10:46:54.689	0.668810
10:46:55.088	0.685883
10:46:55.388	0.659897
10:46:55.788	0.672341
10:46:56.088	0.671936
10:46:56.488	0.625343
10:46:56.788	0.617301
10:46:57.189	0.640691
10:46:57.488	0.644000
10:46:57.788	0.638710
10:46:58.188	0.606838
10:46:58.588	0.607741
10:46:58.888	0.657499
10:46:59.288	0.650714
10:46:59.588	0.630064
10:46:59.888	0.636086
10:47:00.288	0.637743
10:47:00.589	0.647661
10:47:00.988	0.650133
10:47:01.288	0.638259
10:47:01.589	0.635770
10:47:01.988	0.638374
10:47:02.289	0.642038
10:47:02.588	0.658300
10:47:02.988	0.654070
10:47:03.288	0.652117
10:47:03.688	0.654800
10:47:03.988	0.619177
10:47:04.389	0.684585
10:47:04.688	0.705190
10:47:05.088	0.672702
10:47:05.389	0.676861
10:47:05.788	0.654434
10:47:06.088	0.667811
10:47:06.488	0.691170
10:47:06.788	0.671946
10:47:07.189	0.652882
10:47:07.488	0.663879
10:47:07.888	0.647455
10:47:08.188	0.671448
10:47:08.588	0.674822
10:47:08.888	0.677977
10:47:09.288	0.685422
10:47:09.589	0.674525
10:47:09.988	0.706340
10:47:10.288	0.698976
10:47:10.688	0.718413
10:47:11.088	0.698927
10:47:11.389	0.741785
10:47:11.788	0.743913
10:47:12.089	0.722878
10:47:12.389	0.712557
10:47:12.788	0.776518
10:47:13.088	0.804534
10:47:13.488	0.830657
10:47:13.789	0.817606
10:47:14.188	0.838227
10:47:14.488	0.806143
10:47:14.888	0.811009
10:47:15.188	0.810182
10:47:15.588	0.849071
10:47:15.889	0.856534
10:47:16.288	0.843859
10:47:16.589	0.845514
10:47:16.988	0.890194
10:47:17.288	0.897485
10:47:17.688	0.950189
10:47:17.989	0.981448
10:47:18.389	0.967513
10:47:18.689	0.961007
10:47:18.988	0.968091
10:47:19.389	0.999412
10:47:19.688	1.014806
10:47:20.088	1.045794
10:47:20.388	1.046477
10:47:20.688	1.035153
10:47:21.088	1.059445
10:47:21.388	1.061718
10:47:21.789	1.059751
10:47:22.089	1.057316
10:47:22.489	1.132278
10:47:22.788	1.141122
10:47:23.088	1.130541
10:47:23.488	1.143528
10:47:23.788	1.152886
10:47:24.189	1.152845
10:47:24.489	1.167390
10:47:24.889	1.181313
10:47:25.189	1.132649
10:47:25.588	1.128418
10:47:25.888	1.112861
10:47:26.289	1.116723
10:47:26.589	1.086748
10:47:26.989	1.119848
10:47:27.289	1.137691
10:47:27.688	1.176839
10:47:27.988	1.186939
10:47:28.388	1.149849
10:47:28.688	1.151667
10:47:29.088	1.084468
10:47:29.388	1.099304
10:47:29.688	1.131878
10:47:30.089	1.132328
10:47:30.389	1.107640
10:47:30.689	1.073843
10:47:31.089	1.123075
10:47:31.388	1.126810
10:47:31.789	1.110477
10:47:32.088	1.091571
10:47:32.489	1.103794
10:47:32.788	1.125348
10:47:33.089	1.135018
10:47:33.488	1.117880
10:47:33.789	1.142919
10:47:34.189	1.118349
10:47:34.489	1.059418
10:47:34.788	1.117222
10:47:35.189	1.141488
10:47:35.489	1.165768
10:47:35.888	1.088676
10:47:36.189	1.111459
10:47:36.589	1.085109
10:47:36.889	1.126491
10:47:37.289	1.091492
10:47:37.589	1.106379
10:47:37.889	1.107973
10:47:38.288	1.116010
10:47:38.588	1.110227
10:47:38.989	1.134934
10:47:39.289	1.143877
10:47:39.689	1.122609
10:47:39.989	1.099174
10:47:40.388	1.063946
10:47:40.689	1.096126
10:47:41.089	1.094638
10:47:41.388	1.071901
10:47:41.788	1.053349
10:47:42.089	1.091858
10:47:42.389	1.124573
10:47:42.788	1.073878
10:47:43.088	1.013643
10:47:43.488	1.062627
10:47:43.788	1.065540
10:47:44.089	1.086744
10:47:44.488	1.077326
10:47:44.789	1.064736
10:47:45.089	1.035741
10:47:45.489	1.051502
10:47:45.789	1.041171
10:47:46.189	1.057636
10:47:46.488	1.059180
10:47:46.889	1.032013
10:47:47.188	1.000499
10:47:47.589	0.991744
10:47:47.888	0.992517
10:47:48.289	0.985946
10:47:48.588	1.002983
10:47:48.889	0.973199
10:47:49.289	0.912997
10:47:49.589	0.959132
10:47:49.889	0.961001
10:47:50.289	0.918773
10:47:50.589	0.921652
10:47:50.888	0.931728
10:47:51.290	0.938692
10:47:51.589	0.942157
10:47:51.989	0.983327
10:47:52.289	0.979344
10:47:52.689	0.934422
10:47:52.989	0.924118
10:47:53.389	0.918971
10:47:53.689	0.914699
10:47:54.088	0.966938
10:47:54.389	0.941718
10:47:54.789	0.906139
10:47:55.088	0.916059
10:47:55.489	0.932697
10:47:55.789	0.923786
10:47:56.089	0.918495
10:47:56.488	0.917644
10:47:56.790	0.894890
10:47:57.189	0.889737
10:47:57.589	0.896492
10:47:57.888	0.863769
10:47:58.189	0.851659
10:47:58.589	0.842964
10:47:58.988	0.876875
10:47:59.289	0.838571
10:47:59.689	0.862989
10:47:59.989	0.879632
10:48:00.388	0.857772
10:48:00.689	0.843172
10:48:01.089	0.844734
10:48:01.389	0.814794
10:48:01.789	0.806934
10:48:02.089	0.822930
10:48:02.389	0.847309
10:48:02.789	0.835349
10:48:03.089	0.828065
10:48:03.488	0.822870
10:48:03.789	0.814876
10:48:04.089	0.841956
10:48:04.489	0.827690
10:48:04.789	0.831126
10:48:05.088	0.804137
10:48:05.489	0.787700
10:48:05.789	0.776767
10:48:06.089	0.773732
10:48:06.489	0.816502
10:48:06.789	0.790563
10:48:07.189	0.793860
10:48:07.489	0.788092
10:48:07.888	0.770397
10:48:08.189	0.800598
10:48:08.589	0.802623
10:48:08.889	0.801011
10:48:09.188	0.811658
10:48:09.589	0.805350
10:48:09.888	0.790448
10:48:10.189	0.822098
10:48:10.589	0.806961
10:48:10.889	0.792010
10:48:11.189	0.813473
10:48:11.589	0.791614
10:48:11.889	0.806666
10:48:12.189	0.771504
10:48:12.589	0.775134
10:48:12.889	0.802569
10:48:13.189	0.834259
10:48:13.589	0.822190
10:48:13.889	0.855013
10:48:14.289	0.873081
10:48:14.589	0.873645
10:48:14.989	0.863045
10:48:15.288	0.953427
10:48:15.689	0.923541
10:48:15.989	0.942166
10:48:16.289	0.962312
10:48:16.689	1.009737
10:48:16.989	1.006315
10:48:17.288	1.069418
10:48:17.690	1.032403
10:48:17.990	1.027013
10:48:18.289	1.039499
10:48:18.689	1.028879
10:48:18.988	1.031373
10:48:19.289	1.037102
10:48:19.689	1.062149
10:48:19.989	1.076325
10:48:20.289	1.075209
10:48:20.689	1.075397
10:48:20.989	1.074803
10:48:21.389	1.081594
10:48:21.689	1.084620
10:48:22.089	1.043836
10:48:22.390	1.120514
10:48:22.789	1.143724
10:48:23.089	1.139680
10:48:23.489	1.102199
10:48:23.789	1.085807
10:48:24.089	1.089481
10:48:24.489	1.078718
10:48:24.789	1.021827
10:48:25.090	1.041277
10:48:25.489	1.035632
10:48:25.789	1.057397
10:48:26.089	1.074839
10:48:26.489	1.068705
10:48:26.789	1.021898
10:48:27.089	1.003694
10:48:27.489	1.035206
10:48:27.789	0.986007
10:48:28.189	0.969483
10:48:28.488	0.942970
10:48:28.889	0.899076
10:48:29.189	0.883049
10:48:29.589	0.895057
10:48:29.889	0.853841
10:48:30.189	0.841796
10:48:30.589	0.777503
10:48:30.889	0.750093
10:48:31.189	0.715293
10:48:31.589	0.688451
10:48:31.889	0.641434
10:48:32.189	0.640309
10:48:32.589	0.593997
10:48:32.889	0.569006
10:48:33.189	0.560671
10:48:33.589	0.543848
10:48:33.889	0.572795
10:48:34.189	0.560866
10:48:34.589	0.497074
10:48:34.889	0.533896
10:48:35.289	0.493209
10:48:35.589	0.513459
10:48:35.989	0.506570
10:48:36.288	0.508676
10:48:36.689	0.507664
10:48:36.989	0.504710
10:48:37.289	0.507890
10:48:37.689	0.502126
10:48:37.989	0.475240
10:48:38.289	0.466113
10:48:38.689	0.481661
10:48:38.989	0.482484
10:48:39.389	0.472027
10:48:39.689	0.474674
10:48:40.088	0.502334
10:48:40.389	0.475455
10:48:40.789	0.490218
10:48:41.089	0.492601
10:48:41.389	0.488791
10:48:41.789	0.513452
10:48:42.089	0.503818
10:48:42.488	0.488876
10:48:42.889	0.512191
10:48:43.188	0.498558
10:48:43.588	0.488589
10:48:43.889	0.531864
10:48:44.189	0.547654
10:48:44.589	0.525312
10:48:44.889	0.568348
10:48:45.189	0.596294
10:48:45.589	0.605217
10:48:45.889	0.619125
10:48:46.189	0.633886
10:48:46.589	0.627950
10:48:46.889	0.636349
10:48:47.189	0.654593
10:48:47.589	0.632470
10:48:47.889	0.670502
10:48:48.189	0.682015
10:48:48.589	0.720865
10:48:48.888	0.686329
10:48:49.289	0.660672
10:48:49.589	0.702366
10:48:49.989	0.707295
10:48:50.289	0.689679
10:48:50.689	0.737118
10:48:50.989	0.742393
10:48:51.289	0.751419
10:48:51.689	0.743065
10:48:51.989	0.773073
10:48:52.289	0.772395
10:48:52.689	0.753810
10:48:52.989	0.761724
10:48:53.289	0.762125
10:48:53.689	0.778604
10:48:53.989	0.763242
10:48:54.288	0.776453
10:48:54.689	0.765531
10:48:54.988	0.787272
10:48:55.289	0.798710
10:48:55.689	0.809561
10:48:55.989	0.844194
10:48:56.389	0.812911
10:48:56.688	0.799070
10:48:57.089	0.769690
10:48:57.389	0.789092
10:48:57.789	0.840739
10:48:58.089	0.808186
10:48:58.389	0.759194
10:48:58.789	0.743050
10:48:59.089	0.724587
10:48:59.488	0.713500
10:48:59.789	0.712673
10:49:00.189	0.748776
10:49:00.489	0.723707
10:49:00.889	0.725738
10:49:01.189	0.704686
10:49:01.489	0.666414
10:49:01.889	0.618564
10:49:02.189	0.613975
10:49:02.489	0.621729
10:49:02.889	0.612993
10:49:03.189	0.619280
10:49:03.589	0.603358
10:49:03.889	0.588743
10:49:04.289	0.543777
10:49:04.589	0.519463
10:49:04.989	0.592474
10:49:05.289	0.604120
10:49:05.589	0.592991
10:49:05.989	0.576018
10:49:06.289	0.572777
10:49:06.589	0.534356
10:49:06.990	0.552936
10:49:07.289	0.566939
10:49:07.689	0.529642
10:49:07.989	0.555126
10:49:08.289	0.565525
10:49:08.689	0.617768
10:49:08.989	0.617486
10:49:09.290	0.626896
10:49:09.689	0.638680
10:49:09.989	0.689375
10:49:10.389	0.671078
10:49:10.689	0.653504
10:49:11.089	0.654333
10:49:11.389	0.679332
10:49:11.789	0.689686
10:49:12.089	0.708317
10:49:12.389	0.720165
10:49:12.789	0.735225
10:49:13.089	0.749678
10:49:13.389	0.773256
10:49:13.789	0.777720
10:49:14.090	0.760745
10:49:14.389	0.779838
10:49:14.789	0.793164
10:49:15.089	0.816426
10:49:15.389	0.820768
10:49:15.790	0.833213
10:49:16.089	0.852290
10:49:16.389	0.880919
10:49:16.789	0.892350
10:49:17.089	0.854990
10:49:17.489	0.901191
10:49:17.789	0.880883
10:49:18.189	0.862930
10:49:18.489	0.855528
10:49:18.889	0.856583
10:49:19.189	0.860111
10:49:19.489	0.840927
10:49:19.889	0.867942
10:49:20.189	0.851559
10:49:20.489	0.886707
10:49:20.889	0.851552
10:49:21.189	0.877610
10:49:21.589	0.868112
10:49:21.989	0.789860
10:49:22.289	0.789123
10:49:22.589	0.791420
10:49:22.989	0.787623
10:49:23.289	0.795358
10:49:23.589	0.775139
10:49:23.989	0.773701
10:49:24.289	0.754157
10:49:24.589	0.733522
10:49:24.990	0.739116
10:49:25.289	0.746460
10:49:25.689	0.708412
10:49:25.989	0.708655
10:49:26.389	0.733646
10:49:26.689	0.721881
10:49:27.089	0.695447
10:49:27.389	0.685045
10:49:27.689	0.674337
10:49:28.089	0.671095
10:49:28.389	0.663890
10:49:28.689	0.667052
10:49:29.089	0.677425
10:49:29.389	0.643967
10:49:29.689	0.635173
10:49:30.089	0.616345
10:49:30.389	0.598187
10:49:30.689	0.618224
10:49:31.089	0.610866
10:49:31.389	0.585861
10:49:31.789	0.570303
10:49:32.089	0.549713
10:49:32.489	0.563853
10:49:32.789	0.568792
10:49:33.189	0.568936
10:49:33.489	0.569187
10:49:33.789	0.579871
10:49:34.189	0.585399
10:49:34.489	0.700662
10:49:34.789	0.727845
10:49:35.189	0.775631
10:49:35.489	0.857155
10:49:35.889	0.918856
10:49:36.189	0.938213
10:49:36.489	1.002252
10:49:36.889	1.056109
10:49:37.189	1.100980
10:49:37.489	1.171586
10:49:37.889	1.163858
10:49:38.189	1.210701
10:49:38.589	1.229219
10:49:38.889	1.235837
10:49:39.289	1.284020
10:49:39.589	1.340028
10:49:39.989	1.353072
10:49:40.289	1.353925
10:49:40.589	1.384075
10:49:40.990	1.391724
10:49:41.289	1.423431
10:49:41.589	1.457360
10:49:41.989	1.437114
10:49:42.289	1.439075
10:49:42.589	1.454189
10:49:42.989	1.473736
10:49:43.289	1.542724
10:49:43.589	1.498878
10:49:43.989	1.487007
10:49:44.289	1.512693
10:49:44.589	1.535541
10:49:44.989	1.499736
10:49:45.290	1.528557
10:49:45.689	1.543707
10:49:45.990	1.563154
10:49:46.389	1.632317
10:49:46.689	1.570447
10:49:46.990	1.543373
10:49:47.389	1.593977
10:49:47.689	1.577947
10:49:48.089	1.569370
10:49:48.389	1.573490
10:49:48.689	1.507726
10:49:49.090	1.443406
10:49:49.389	1.412010
10:49:49.789	1.351681
10:49:50.089	1.294764
10:49:50.489	1.227702
10:49:50.789	1.230137
10:49:51.189	1.121578
10:49:51.489	1.070547
10:49:51.789	1.024395
10:49:52.189	0.987642
10:49:52.489	0.868463
10:49:52.890	0.861887
10:49:53.189	0.830000
10:49:53.589	0.801295
10:49:53.889	0.736372
10:49:54.190	0.716960
10:49:54.589	0.721570
10:49:54.889	0.720113
10:49:55.289	0.676273
10:49:55.589	0.652703
10:49:55.889	0.626988
10:49:56.290	0.627295
10:49:56.589	0.633092
10:49:56.989	0.584029
10:49:57.290	0.566413
10:49:57.589	0.583549
10:49:57.989	0.562100
10:49:58.289	0.552436
10:49:58.589	0.530560
10:49:58.989	0.554629
10:49:59.290	0.501917
10:49:59.690	0.492595
10:49:59.989	0.551698
10:50:00.389	0.524875
10:50:00.689	0.505368
10:50:01.089	0.502141
10:50:01.389	0.491027
10:50:01.689	0.485867
10:50:02.089	0.449564
10:50:02.389	0.447636
10:50:02.789	0.451734
10:50:03.090	0.462056
10:50:03.389	0.445824
10:50:03.789	0.427042
10:50:04.089	0.416538
10:50:04.489	0.426609
10:50:04.789	0.411326
10:50:05.189	0.413910
10:50:05.489	0.401663
10:50:05.789	0.401284
10:50:06.189	0.406460
10:50:06.489	0.397148
10:50:06.889	0.412607
10:50:07.189	0.405217
10:50:07.589	0.398735
10:50:07.889	0.388839
10:50:08.290	0.388586
10:50:08.590	0.378996
10:50:08.889	0.380418
10:50:09.289	0.371247
10:50:09.589	0.380473
10:50:09.889	0.399441
10:50:10.290	0.403408
10:50:10.590	0.401584
10:50:10.990	0.411179
10:50:11.289	0.403366
10:50:11.589	0.413380
10:50:11.989	0.427876
10:50:12.290	0.412747
10:50:12.589	0.390835
10:50:12.990	0.411543
10:50:13.289	0.411446
10:50:13.690	0.450577
10:50:13.990	0.417612
10:50:14.389	0.426364
10:50:14.690	0.430199
10:50:15.089	0.443943
10:50:15.389	0.428284
10:50:15.689	0.407285
10:50:16.089	0.401765
10:50:16.390	0.445538
10:50:16.689	0.427953
10:50:17.089	0.416280
10:50:17.389	0.443767
10:50:17.689	0.434679
10:50:18.089	0.450190
10:50:18.390	0.444149
10:50:18.690	0.443680
10:50:19.090	0.444041
10:50:19.389	0.423934
10:50:19.689	0.430751
10:50:20.089	0.439156
10:50:20.389	0.419222
10:50:20.789	0.402830
10:50:21.089	0.420833
10:50:21.489	0.402311
10:50:21.789	0.400720
10:50:22.189	0.416686
10:50:22.489	0.392269
10:50:22.790	0.392205
10:50:23.189	0.382878
10:50:23.489	0.393851
10:50:23.790	0.368197
10:50:24.189	0.376336
10:50:24.490	0.365419
10:50:24.790	0.366259
10:50:25.189	0.329815
10:50:25.489	0.326891
10:50:25.790	0.311036
10:50:26.189	0.307827
10:50:26.489	0.321556
10:50:26.789	0.311531
10:50:27.189	0.310136
10:50:27.489	0.315786
10:50:27.890	0.287397
10:50:28.190	0.293985
10:50:28.590	0.293248
10:50:28.889	0.284871
10:50:29.189	0.277453
10:50:29.589	0.259244
10:50:29.889	0.266305
10:50:30.289	0.253976
10:50:30.589	0.260684
10:50:30.889	0.255427
10:50:31.289	0.278363
10:50:31.590	0.282866
10:50:31.989	0.263989
10:50:32.289	0.252515
10:50:32.690	0.248235
10:50:32.989	0.238094
10:50:33.289	0.251632
10:50:33.689	0.251694
10:50:33.989	0.230457
10:50:34.389	0.237358
10:50:34.689	0.262243
10:50:35.089	0.252873
10:50:35.389	0.238692
10:50:35.789	0.279071
10:50:36.089	0.279874
10:50:36.389	0.275793
10:50:36.789	0.279618
10:50:37.089	0.282974
10:50:37.390	0.282109
10:50:37.789	0.264205
10:50:38.090	0.262915
10:50:38.389	0.258518
10:50:38.790	0.312820
10:50:39.090	0.278376
10:50:39.489	0.306951
10:50:39.789	0.334608
10:50:40.090	0.349992
10:50:40.489	0.350040
10:50:40.789	0.375412
10:50:41.089	0.378793
10:50:41.490	0.427375
10:50:41.789	0.497495
10:50:42.189	0.625854
10:50:42.490	0.693956
10:50:42.890	0.759712
10:50:43.190	0.839613
10:50:43.589	0.935687
10:50:43.889	1.016681
10:50:44.190	1.108680
10:50:44.589	1.262903
10:50:44.889	1.314346
10:50:45.189	1.423981
10:50:45.590	1.488697
10:50:45.889	1.509187
10:50:46.290	1.538248
10:50:46.590	1.587735
10:50:46.890	1.665887
10:50:47.290	1.660592
10:50:47.590	1.707130
10:50:47.889	1.767135
10:50:48.290	1.805220
10:50:48.590	1.807235
10:50:48.990	1.841658
10:50:49.289	1.916655
10:50:49.690	1.950236
10:50:49.989	1.939911
10:50:50.289	1.941474
10:50:50.690	1.980155
10:50:50.989	2.022093
10:50:51.389	2.149031
10:50:51.690	2.138283
10:50:51.990	2.146963
10:50:52.390	2.176421
10:50:52.690	2.277602
10:50:53.989	2.340565
10:50:54.290	2.355296
10:50:54.690	2.381372
10:50:54.989	2.384563
10:50:55.290	2.360722
10:50:55.689	2.337912
10:50:55.990	2.342527
10:50:56.290	2.339437
10:50:56.690	2.236609
10:50:56.990	2.198810
10:50:57.390	2.104843
10:50:57.689	1.741100
10:50:58.990	1.651612
10:50:59.289	1.595112
10:50:59.689	1.443170
10:50:59.990	1.403368
10:51:00.390	1.312310
10:51:00.690	1.261379
10:51:00.989	1.207099
10:51:01.390	1.108240
10:51:01.690	1.096692
10:51:02.089	1.083933
10:51:02.390	1.046857
10:51:02.789	0.972435
10:51:03.090	0.996891
10:51:03.389	0.977261
10:51:03.789	0.962869
10:51:04.089	0.931576
10:51:04.489	0.895961
10:51:04.790	0.866151
10:51:05.190	0.832848
10:51:05.490	0.809176
10:51:05.890	0.787160
10:51:06.190	0.778896
10:51:06.590	0.720808
10:51:06.890	0.658880
10:51:07.190	0.617190
10:51:07.589	0.596694
10:51:07.889	0.550023
10:51:08.189	0.518663
10:51:08.589	0.498330
10:51:08.890	0.485963
10:51:09.290	0.454634
10:51:09.590	0.418155
10:51:09.890	0.421930
10:51:10.291	0.405086
10:51:10.590	0.362942
10:51:10.989	0.355169
10:51:11.289	0.340732
10:51:11.690	0.328908
10:51:11.990	0.309708
10:51:12.290	0.300332
10:51:12.690	0.313760
10:51:12.990	0.309873
10:51:13.290	0.307190
10:51:13.690	0.272649
10:51:13.990	0.277914
10:51:14.390	0.290725
10:51:14.690	0.283123
10:51:14.990	0.268252
10:51:15.391	0.259508
10:51:15.690	0.256354
10:51:16.090	0.250372
10:51:16.390	0.252620
10:51:16.789	0.257151
10:51:17.089	0.255322
10:51:17.390	0.259281
10:51:17.790	0.240445
10:51:18.090	0.229938
10:51:18.390	0.221249
10:51:18.790	0.231134
10:51:19.090	0.244426
10:51:19.390	0.234739
10:51:19.789	0.243223
10:51:20.090	0.225620
10:51:20.390	0.237084
10:51:20.790	0.226988
10:51:21.090	0.256476
10:51:21.390	0.246999
10:51:21.790	0.216891
10:51:22.090	0.227217
10:51:22.390	0.212692
10:51:22.790	0.232494
10:51:23.090	0.233105
10:51:23.390	0.226035
10:51:23.790	0.220819
10:51:24.090	0.217750
10:51:24.390	0.224225
10:51:24.790	0.216801
10:51:25.090	0.212276
10:51:25.390	0.204034
10:51:25.790	0.209674
10:51:26.090	0.214389
10:51:26.490	0.222652
10:51:26.790	0.188360
10:51:27.190	0.218898
10:51:27.489	0.221896
10:51:27.790	0.223095
10:51:28.190	0.206189
10:51:28.489	0.225041
10:51:28.890	0.215044
10:51:29.190	0.213838
10:51:29.490	0.229482
10:51:29.890	0.227313
10:51:30.190	0.211588
10:51:30.590	0.220179
10:51:30.890	0.244056
10:51:31.190	0.273831
10:51:31.590	0.249093
10:51:31.890	0.258961
10:51:32.190	0.267308
10:51:32.590	0.263659
10:51:32.890	0.262346
10:51:33.190	0.266122
10:51:33.590	0.283855
10:51:33.890	0.285874
10:51:34.190	0.293056
10:51:34.590	0.299870
10:51:34.890	0.310174
10:51:35.190	0.319738
10:51:35.589	0.301510
10:51:35.890	0.297917
10:51:36.190	0.300849
10:51:36.590	0.337095
10:51:36.889	0.336873
10:51:37.290	0.348482
10:51:37.590	0.358475
10:51:37.990	0.363724
10:51:38.290	0.362153
10:51:38.689	0.366910
10:51:38.990	0.382445
10:51:39.290	0.378871
10:51:39.690	0.400399
10:51:39.990	0.388590
10:51:40.290	0.387795
10:51:40.690	0.397083
10:51:40.990	0.391631
10:51:41.290	0.386124
10:51:41.690	0.388563
10:51:41.990	0.435682
10:51:42.290	0.429431
10:51:42.690	0.406061
10:51:42.990	0.430286
10:51:43.289	0.446312
10:51:43.689	0.427513
10:51:43.990	0.428914
10:51:44.390	0.462287
10:51:44.690	0.448628
10:51:44.989	0.430219
10:51:45.390	0.464503
10:51:45.690	0.459663
10:51:46.090	0.441560
10:51:46.390	0.458024
10:51:46.790	0.440472
10:51:47.090	0.452509
10:51:47.390	0.444243
10:51:47.790	0.461969
10:51:48.090	0.470358
10:51:48.389	0.483202
10:51:48.790	0.496422
10:51:49.090	0.517903
10:51:49.390	0.496109
10:51:49.790	0.529863
10:51:50.090	0.539913
10:51:50.390	0.567186
10:51:50.790	0.614845
10:51:51.090	0.617888
10:51:51.390	0.652802
10:51:51.790	0.669243
10:51:52.090	0.649994
10:51:52.390	0.654499
10:51:52.791	0.648008
10:51:53.090	0.655985
10:51:53.489	0.665181
10:51:53.790	0.678525
10:51:54.189	0.690521
10:51:54.490	0.701438
10:51:54.890	0.683083
10:51:55.190	0.739120
10:51:55.489	0.720175
10:51:55.890	0.692274
10:51:56.190	0.698141
10:51:56.489	0.700827
10:51:56.890	0.694905
10:51:57.190	0.684304
10:51:57.490	0.667370
10:51:57.890	0.683100
10:51:58.190	0.699867
10:51:58.490	0.693810
10:51:58.890	0.665972
10:51:59.190	0.693464
10:51:59.489	0.695106
10:51:59.890	0.711409
10:52:00.190	0.692795
10:52:00.590	0.699649
10:52:00.890	0.689912
10:52:01.290	0.665750
10:52:01.590	0.668589
10:52:01.990	0.648815
10:52:02.290	0.632120
10:52:02.590	0.637183
10:52:02.990	0.605308
10:52:03.290	0.570286
10:52:03.589	0.541825
10:52:03.990	0.518203
10:52:04.290	0.465473
10:52:04.590	0.481042
10:52:04.990	0.444605
10:52:05.291	0.415755
10:52:05.589	0.410314
10:52:05.990	0.377616
10:52:06.290	0.370564
10:52:06.590	0.347859
10:52:06.990	0.338379
10:52:07.290	0.305563
10:52:07.690	0.279290
10:52:07.990	0.268249
10:52:08.390	0.277178
10:52:08.690	0.252005
10:52:09.090	0.254579
10:52:09.390	0.244632
10:52:09.690	0.242610
10:52:10.090	0.221630
10:52:10.390	0.213325
10:52:10.690	0.240369
10:52:11.090	0.229487
10:52:11.390	0.226862
10:52:11.690	0.229467
10:52:12.090	0.227209
10:52:12.390	0.224641
10:52:12.690	0.229751
10:52:13.090	0.226226
10:52:13.390	0.250555
10:52:13.690	0.239653
10:52:14.090	0.229656
10:52:14.390	0.251476
10:52:14.690	0.239261
10:52:15.090	0.214354
10:52:15.390	0.197388
10:52:15.790	0.173402
10:52:16.090	0.200983
10:52:16.390	0.201688
10:52:16.790	0.189853
10:52:17.090	0.199713
10:52:17.390	0.198908
10:52:17.790	0.185520
10:52:18.090	0.175757
10:52:18.390	0.176065
10:52:18.790	0.174478
10:52:19.090	0.188080
10:52:19.390	0.196922
10:52:19.790	0.175996
10:52:20.090	0.185338
10:52:20.490	0.165887
10:52:20.790	0.164651
10:52:21.190	0.176375
10:52:21.490	0.168696
10:52:21.890	0.159230
10:52:22.190	0.181958
10:52:22.590	0.185066
10:52:22.891	0.172667
10:52:23.290	0.175279
10:52:23.590	0.171821
10:52:23.890	0.179570
10:52:24.290	0.186633
10:52:24.590	0.177154
10:52:24.990	0.165466
10:52:25.290	0.180712
10:52:25.590	0.182126
10:52:25.990	0.178080
10:52:26.290	0.170810
10:52:26.590	0.185946
10:52:26.990	0.183646
10:52:27.290	0.182349
10:52:27.591	0.180474
10:52:27.990	0.224926
10:52:28.290	0.217647
10:52:28.690	0.194761
10:52:28.990	0.159306
10:52:29.390	0.169148
10:52:29.690	0.171129
10:52:30.090	0.191126
10:52:30.390	0.201073
10:52:30.690	0.192632
10:52:31.090	0.189912
10:52:31.390	0.211817
10:52:31.690	0.199650
10:52:32.090	0.177660
10:52:32.390	0.200737
10:52:32.690	0.196730
10:52:33.090	0.207471
10:52:33.390	0.213710
10:52:33.690	0.217997
10:52:34.090	0.222344
10:52:34.390	0.211992
10:52:34.690	0.214037
10:52:35.090	0.226952
10:52:35.390	0.230002
10:52:35.790	0.215161
10:52:36.090	0.214720
10:52:36.490	0.216717
10:52:36.790	0.216710
10:52:37.090	0.209855
10:52:37.491	0.197929
10:52:37.790	0.199888
10:52:38.190	0.183228
10:52:38.490	0.215274
10:52:38.790	0.217361
10:52:39.190	0.221924
10:52:39.491	0.205694
10:52:39.890	0.206807
10:52:40.190	0.200379
10:52:40.590	0.211399
10:52:40.890	0.205528
10:52:41.290	0.222020
10:52:41.590	0.217135
10:52:41.890	0.210656
10:52:42.290	0.229873
10:52:42.591	0.214344
10:52:42.990	0.220586
10:52:43.290	0.237796
10:52:43.690	0.248958
10:52:43.990	0.244454
10:52:44.290	0.252788
10:52:44.690	0.252273
10:52:44.990	0.244721
10:52:45.390	0.279413
10:52:45.690	0.258344
10:52:45.990	0.305638
10:52:46.391	0.308674
10:52:46.690	0.303664
10:52:47.090	0.294287
10:52:47.390	0.300508
10:52:47.690	0.294723
10:52:48.090	0.338534
10:52:48.390	0.330781
10:52:48.690	0.321633
10:52:49.090	0.338818
10:52:49.390	0.348598
10:52:49.790	0.364448
10:52:50.091	0.354001
10:52:50.490	0.331611
10:52:50.790	0.344074
10:52:51.191	0.353101
10:52:51.490	0.375297
10:52:51.790	0.349135
10:52:52.190	0.366130
10:52:52.490	0.376452
10:52:52.791	0.374195
10:52:53.190	0.365010
10:52:53.490	0.365397
10:52:53.790	0.375098
10:52:54.190	0.369782
10:52:54.490	0.349238
10:52:54.790	0.359165
10:52:55.190	0.371004
10:52:55.490	0.354660
10:52:55.790	0.385004
10:52:56.190	0.388067
10:52:56.490	0.369423
10:52:56.890	0.381361
10:52:57.190	0.362656
10:52:57.590	0.357239
10:52:57.890	0.333088
10:52:58.190	0.365271
10:52:58.590	0.350862
10:52:58.890	0.356506
10:52:59.290	0.360604
10:52:59.590	0.335319
10:52:59.891	0.326524
10:53:00.290	0.312105
10:53:00.591	0.289022
10:53:00.990	0.286002
10:53:01.290	0.299819
10:53:01.690	0.284040
10:53:01.990	0.275217
10:53:02.390	0.281622
10:53:02.690	0.275672
10:53:02.990	0.270291
10:53:03.390	0.272677
10:53:03.690	0.272411
10:53:04.090	0.262019
10:53:04.390	0.265870
10:53:04.790	0.275093
10:53:05.090	0.260604
10:53:05.490	0.263565
10:53:05.790	0.266457
10:53:06.190	0.277636
10:53:06.490	0.279099
10:53:06.791	0.273695
10:53:07.191	0.266869
10:53:07.490	0.242631
10:53:07.790	0.242977
10:53:08.190	0.262782
10:53:08.490	0.268571
10:53:08.790	0.271874
10:53:09.190	0.274931
10:53:09.490	0.268916
10:53:09.890	0.278380
10:53:10.191	0.283820
10:53:10.591	0.279687
10:53:10.890	0.259402
10:53:11.290	0.270393
10:53:11.590	0.286490
10:53:11.990	0.283393
10:53:12.290	0.270406
10:53:12.690	0.283380
10:53:12.990	0.289493
10:53:13.390	0.273606
10:53:13.690	0.278808
10:53:13.990	0.267658
10:53:14.390	0.293272
10:53:14.690	0.280920
10:53:15.090	0.287677
10:53:15.390	0.275051
10:53:15.790	0.291168
10:53:16.090	0.283575
10:53:16.390	0.266168
10:53:16.790	0.279030
10:53:17.090	0.258459
10:53:17.490	0.279824
10:53:17.790	0.266853
10:53:18.190	0.263821
10:53:18.491	0.269002
10:53:18.890	0.252092
10:53:19.190	0.264658
10:53:19.591	0.231226
10:53:19.890	0.248790
10:53:20.290	0.261674
10:53:20.590	0.254405
10:53:20.891	0.243476
10:53:21.290	0.253294
10:53:21.591	0.259399
10:53:21.890	0.267163
10:53:22.291	0.262830
10:53:22.590	0.279516
10:53:22.890	0.238850
10:53:23.290	0.258601
10:53:23.590	0.257770
10:53:23.890	0.241653
10:53:24.290	0.236117
10:53:24.591	0.229751
10:53:24.990	0.209639
10:53:25.290	0.218547
10:53:25.691	0.241414
10:53:25.990	0.224952
10:53:26.390	0.229268
10:53:26.690	0.235003
10:53:26.990	0.227738
10:53:27.390	0.232327
10:53:27.691	0.219113
10:53:27.990	0.228770
10:53:28.390	0.231858
10:53:28.690	0.243488
10:53:29.090	0.234820
10:53:29.390	0.244612
10:53:29.790	0.235774
10:53:30.091	0.226550
10:53:30.490	0.201432
10:53:30.790	0.196371
10:53:31.090	0.198869
10:53:31.491	0.202783
10:53:31.790	0.213685
10:53:32.190	0.213267
10:53:32.490	0.222353
10:53:32.890	0.218056
10:53:33.190	0.210620
10:53:33.590	0.224769
10:53:33.891	0.230182
10:53:34.190	0.209881
10:53:34.591	0.198853
10:53:34.891	0.207629
10:53:35.191	0.197796
10:53:35.590	0.211055
10:53:35.891	0.198843
10:53:36.291	0.210155
10:53:36.590	0.196796
10:53:36.990	0.217273
10:53:37.290	0.180925
10:53:37.690	0.197531
10:53:37.990	0.208495
10:53:38.291	0.225556
10:53:38.690	0.208398
10:53:38.990	0.207343
10:53:39.390	0.191636
10:53:39.691	0.166531
10:53:40.091	0.181210
10:53:40.391	0.171438
10:53:40.791	0.186293
10:53:41.090	0.187364
10:53:41.490	0.198255
10:53:41.791	0.190984
10:53:42.190	0.178509
10:53:42.491	0.177975
10:53:42.791	0.187860
10:53:43.191	0.186995
10:53:43.591	0.200992
10:53:43.890	0.190069
10:53:44.190	0.185922
10:53:44.590	0.181901
10:53:44.890	0.181529
10:53:45.191	0.197466
10:53:45.590	0.172851
10:53:45.891	0.178284
10:53:46.290	0.188298
10:53:46.590	0.204073
10:53:46.990	0.208215
10:53:47.290	0.202372
10:53:47.690	0.181261
10:53:47.991	0.193691
10:53:48.291	0.184220
10:53:48.691	0.212927
10:53:48.991	0.198436
10:53:49.290	0.191620
10:53:49.690	0.192349
10:53:49.990	0.211116
10:53:50.290	0.203785
10:53:50.690	0.194428
10:53:50.991	0.203364
10:53:51.291	0.201855
10:53:51.690	0.202832
10:53:51.991	0.207555
10:53:52.291	0.201233
10:53:52.691	0.240494
10:53:52.991	0.243717
10:53:53.390	0.255707
10:53:53.691	0.255788
10:53:54.090	0.270407
10:53:54.391	0.276558
10:53:54.790	0.272092
10:53:55.090	0.285574
10:53:55.391	0.302076
10:53:55.791	0.299424
10:53:56.090	0.294144
10:53:56.391	0.300804
10:53:56.790	0.320915
10:53:57.091	0.327064
10:53:57.390	0.315387
10:53:57.790	0.321074
10:53:58.090	0.336449
10:53:58.390	0.348827
10:53:58.791	0.366311
10:53:59.091	0.364538
10:53:59.391	0.395108
10:53:59.791	0.398705
10:54:00.091	0.380279
10:54:00.491	0.419435
10:54:00.790	0.418330
10:54:01.191	0.479146
10:54:01.491	0.488995
10:54:01.791	0.504493
10:54:02.190	0.496160
10:54:02.491	0.487311
10:54:02.891	0.505285
10:54:03.191	0.529380
10:54:03.491	0.528948
10:54:03.890	0.541856
10:54:04.190	0.561827
10:54:04.591	0.543925
10:54:04.891	0.555033
10:54:05.291	0.569888
10:54:05.591	0.570742
10:54:05.991	0.580128
10:54:06.290	0.564729
10:54:06.690	0.585818
10:54:06.991	0.595982
10:54:07.390	0.581530
10:54:07.691	0.582909
10:54:08.091	0.566439
10:54:08.391	0.564901
10:54:08.791	0.562661
10:54:09.091	0.543258
10:54:09.391	0.542515
10:54:09.791	0.535811
10:54:10.091	0.530429
10:54:10.391	0.524852
10:54:10.791	0.505118
10:54:11.091	0.524797
10:54:11.391	0.525990
10:54:11.791	0.515925
10:54:12.091	0.504075
10:54:12.391	0.520148
10:54:12.791	0.515724
10:54:13.090	0.500304
10:54:13.391	0.444113
10:54:13.790	0.440068
10:54:14.091	0.423379
10:54:14.490	0.418189
10:54:14.791	0.428065
10:54:15.191	0.380068
10:54:15.491	0.375267
10:54:15.891	0.375603
10:54:16.191	0.342248
10:54:16.491	0.343570
10:54:16.891	0.307313
10:54:17.191	0.295302
10:54:17.491	0.293433
10:54:17.891	0.293124
10:54:18.191	0.275105
10:54:18.491	0.279392
10:54:18.891	0.255387
10:54:19.191	0.271022
10:54:19.492	0.266635
10:54:19.891	0.242182
10:54:20.191	0.239675
10:54:20.491	0.234231
10:54:20.891	0.236100
10:54:21.190	0.220126
10:54:21.590	0.214163
10:54:21.891	0.213173
10:54:22.291	0.204685
10:54:22.591	0.191969
10:54:22.991	0.206942
10:54:23.291	0.194260
10:54:23.691	0.178114
10:54:23.991	0.196695
10:54:24.290	0.199831
10:54:24.691	0.173272
10:54:24.991	0.168970
10:54:25.291	0.174900
10:54:25.691	0.177493
10:54:25.991	0.171685
10:54:26.291	0.165997
10:54:26.690	0.177470
10:54:26.991	0.172275
10:54:27.291	0.161774
10:54:27.690	0.159602
10:54:27.991	0.164564
10:54:28.391	0.155811
10:54:28.690	0.154615
10:54:29.091	0.143635
10:54:29.391	0.146440
10:54:29.791	0.145621
10:54:30.090	0.151044
10:54:30.391	0.145274
10:54:30.791	0.151773
10:54:31.090	0.153447
10:54:31.391	0.145382
10:54:31.791	0.158000
10:54:32.091	0.141288
10:54:32.490	0.146865
10:54:32.791	0.148326
10:54:33.191	0.146475
10:54:33.491	0.144312
10:54:33.891	0.141814
10:54:34.191	0.142296
10:54:34.491	0.137862
10:54:34.891	0.141639
10:54:35.191	0.129816
10:54:35.591	0.142357
10:54:35.891	0.137859
10:54:36.291	0.130094
10:54:36.591	0.141560
10:54:36.991	0.151554
10:54:37.290	0.142636
10:54:37.591	0.143874
10:54:37.991	0.139247
10:54:38.291	0.151435
10:54:38.591	0.147383
10:54:38.991	0.148507
10:54:39.291	0.124370
10:54:39.591	0.120115
10:54:39.991	0.119165
10:54:40.291	0.129927
10:54:40.591	0.128153
10:54:40.991	0.135743
10:54:41.291	0.143971
10:54:41.591	0.140351
10:54:41.991	0.121762
10:54:42.291	0.118112
10:54:42.691	0.141092
10:54:42.991	0.147599
10:54:43.391	0.141009
10:54:43.692	0.172281
10:54:44.091	0.155113
10:54:44.391	0.151563
10:54:44.790	0.150119
10:54:45.091	0.144766
10:54:45.391	0.120614
10:54:45.791	0.124845
10:54:46.090	0.142004
10:54:46.391	0.128238
10:54:46.791	0.136943
10:54:47.091	0.135101
10:54:47.391	0.137039
10:54:47.791	0.156815
10:54:48.090	0.152824
10:54:48.391	0.138737
10:54:48.791	0.140050
10:54:49.091	0.120322
10:54:49.491	0.132797
10:54:49.791	0.151017
10:54:50.191	0.141822
10:54:50.491	0.133363
10:54:50.891	0.140310
10:54:51.191	0.116663
10:54:51.491	0.126329
10:54:51.891	0.127341
10:54:52.191	0.138743
10:54:52.491	0.141197
10:54:52.890	0.141749
10:54:53.191	0.126182
10:54:53.491	0.139019
10:54:53.891	0.121304
10:54:54.191	0.119351
10:54:54.591	0.117182
10:54:54.891	0.123308
10:54:55.191	0.132553
10:54:55.591	0.131334
10:54:55.891	0.136425
10:54:56.291	0.118151
10:54:56.591	0.127651
10:54:56.991	0.129539
10:54:57.290	0.131171
10:54:57.691	0.129229
10:54:57.991	0.130384
10:54:58.390	0.136124
10:54:58.691	0.124621
10:54:59.091	0.124091
10:54:59.392	0.119071
10:54:59.791	0.120868
10:55:00.091	0.133292
10:55:00.491	0.128835
10:55:00.791	0.136669
10:55:01.191	0.110131
10:55:01.491	0.124816
10:55:01.891	0.111001
10:55:02.192	0.127573
10:55:02.491	0.123984
10:55:02.891	0.137477
10:55:03.191	0.152086
10:55:03.591	0.126157
10:55:03.891	0.111888
10:55:04.291	0.128234
10:55:04.591	0.144367
10:55:04.991	0.157145
10:55:05.291	0.147957
10:55:05.691	0.124822
10:55:05.991	0.123803
10:55:06.391	0.126530
10:55:06.692	0.128194
10:55:07.091	0.119263
10:55:07.391	0.117426
10:55:07.691	0.123428
10:55:08.091	0.115436
10:55:08.391	0.119081
10:55:08.791	0.120047
10:55:09.091	0.132371
10:55:09.491	0.117642
10:55:09.791	0.120936
10:55:10.191	0.114667
10:55:10.491	0.134312
10:55:10.891	0.128954
10:55:11.191	0.136151
10:55:11.591	0.129000
10:55:11.891	0.111720
10:55:12.291	0.118718
10:55:12.590	0.128463
10:55:12.991	0.133133
10:55:13.291	0.137597
10:55:13.591	0.131036
10:55:13.991	0.119850
10:55:14.291	0.120734
10:55:14.591	0.141024
10:55:14.991	0.124766
10:55:15.291	0.126262
10:55:15.691	0.123290
10:55:15.991	0.123923
10:55:16.392	0.122075
10:55:16.691	0.111148
10:55:17.091	0.121795
10:55:17.391	0.135603
10:55:17.792	0.139233
10:55:18.091	0.140538
10:55:18.491	0.124027
10:55:18.791	0.111878
10:55:19.191	0.097313
10:55:19.491	0.105249
10:55:19.791	0.127500
10:55:20.191	0.118177
10:55:20.491	0.108693
10:55:20.891	0.123437
10:55:21.191	0.109661
10:55:21.591	0.109479
10:55:21.891	0.114410
10:55:22.291	0.120587
10:55:22.591	0.122743
10:55:22.991	0.122894
10:55:23.291	0.132485
10:55:23.591	0.130166
10:55:23.991	0.127075
10:55:24.291	0.130358
10:55:24.591	0.131519
10:55:24.992	0.129202
10:55:25.291	0.119764
10:55:25.591	0.119437
10:55:25.991	0.128423
10:55:26.292	0.121528
10:55:26.591	0.118430
10:55:26.991	0.131708
10:55:27.291	0.120255
10:55:27.691	0.112114
10:55:27.991	0.108267
10:55:28.392	0.108945
10:55:28.691	0.124358
10:55:29.091	0.123055
10:55:29.391	0.121177
10:55:29.791	0.130246
10:55:30.091	0.109923
10:55:30.392	0.108762
10:55:30.791	0.122205
10:55:31.091	0.109895
10:55:31.491	0.126153
10:55:31.791	0.113323
10:55:32.191	0.111899
10:55:32.491	0.121799
10:55:32.891	0.122836
10:55:33.191	0.128641
10:55:33.592	0.128170
10:55:33.891	0.136037
10:55:34.291	0.147896
10:55:34.591	0.149394
10:55:34.891	0.187775
10:55:35.291	0.193221
10:55:35.591	0.210296
10:55:35.991	0.190582
10:55:36.291	0.183895
10:55:36.691	0.170855
10:55:36.992	0.174932
10:55:37.391	0.174068
10:55:37.691	0.151903
10:55:37.991	0.129492
10:55:38.391	0.119356
10:55:38.691	0.129133
10:55:39.091	0.127667
10:55:39.391	0.134914
10:55:39.691	0.124323
10:55:40.091	0.128974
10:55:40.391	0.126183
10:55:40.791	0.113076
10:55:41.091	0.132301
10:55:41.491	0.129682
10:55:41.792	0.125415
10:55:42.091	0.124321
10:55:42.491	0.104401
10:55:42.792	0.102997
10:55:43.091	0.127958
10:55:43.491	0.114770
10:55:43.791	0.113844
10:55:44.191	0.113590
10:55:44.491	0.120478
10:55:44.791	0.127260
10:55:45.191	0.120780
10:55:45.491	0.114472
10:55:45.892	0.115370
10:55:46.191	0.119242
10:55:46.591	0.129550
10:55:46.891	0.131239
10:55:47.291	0.133059
10:55:47.591	0.122184
10:55:47.991	0.120128
10:55:48.292	0.116763
10:55:48.692	0.113323
10:55:48.991	0.114640
10:55:49.392	0.135427
10:55:49.691	0.128115
10:55:49.991	0.133226
10:55:50.392	0.136241
10:55:50.691	0.129874
10:55:51.091	0.113589
10:55:51.391	0.098405
10:55:51.791	0.112330
10:55:52.091	0.126279
10:55:52.491	0.106601
10:55:52.791	0.100814
10:55:53.191	0.116772
10:55:53.491	0.121186
10:55:53.891	0.121686
10:55:54.191	0.124896
10:55:54.591	0.142575
10:55:54.891	0.112732
10:55:55.291	0.112294
10:55:55.591	0.109619
10:55:55.991	0.120744
10:55:56.291	0.115355
10:55:56.691	0.123700
10:55:56.991	0.115239
10:55:57.391	0.120579
10:55:57.691	0.131076
10:55:58.091	0.116978
10:55:58.391	0.120183
10:55:58.791	0.126009
10:55:59.091	0.127638
10:55:59.391	0.135585
10:55:59.791	0.122639
10:56:00.091	0.137031
10:56:00.492	0.143281
10:56:00.891	0.134149
10:56:01.191	0.124898
10:56:01.591	0.117841
10:56:01.891	0.141020
10:56:02.291	0.122538
10:56:02.591	0.116413
10:56:02.891	0.109437
10:56:03.291	0.122307
10:56:03.592	0.128675
10:56:03.891	0.136651
10:56:04.291	0.129600
10:56:04.591	0.121368
10:56:04.991	0.125263
10:56:05.292	0.128914
10:56:05.691	0.117933
10:56:05.992	0.121061
10:56:06.392	0.124940
10:56:06.692	0.123605
10:56:06.991	0.113211
10:56:07.391	0.101804
10:56:07.691	0.104455
10:56:08.091	0.108004
10:56:08.391	0.107048
10:56:08.791	0.105255
10:56:09.092	0.109648
10:56:09.391	0.111317
10:56:09.791	0.123249
10:56:10.092	0.120955
10:56:10.491	0.118633
10:56:10.792	0.127100
10:56:11.091	0.116037
10:56:11.491	0.126637
10:56:11.791	0.120736
10:56:12.191	0.125481
10:56:12.491	0.126906
10:56:12.891	0.113766
10:56:13.191	0.112883
10:56:13.592	0.107411
10:56:13.891	0.117503
10:56:14.192	0.120710
10:56:14.591	0.121328
10:56:14.891	0.130593
10:56:15.291	0.134902
10:56:15.591	0.129992
10:56:15.991	0.123088
10:56:16.291	0.106596
10:56:16.692	0.133861
10:56:16.991	0.135488
10:56:17.391	0.101631
10:56:17.692	0.098678
10:56:17.991	0.096825
10:56:18.391	0.102686
10:56:18.691	0.096870
10:56:19.091	0.111394
10:56:19.391	0.109587
10:56:19.791	0.109248
10:56:20.091	0.114751
10:56:20.491	0.098794
10:56:20.791	0.110618
10:56:21.091	0.107802
10:56:21.491	0.114473
10:56:21.791	0.109361
10:56:22.091	0.103719
10:56:22.491	0.124399
10:56:22.791	0.108122
10:56:23.191	0.086895
10:56:23.492	0.092875
10:56:23.891	0.114262
10:56:24.191	0.114194
10:56:24.591	0.122531
10:56:24.891	0.125830
10:56:25.191	0.111732
10:56:25.591	0.115013
10:56:25.891	0.104473
10:56:26.291	0.120121
10:56:26.591	0.109568
10:56:26.992	0.121882
10:56:27.292	0.119736
10:56:27.691	0.105266
10:56:27.991	0.112703
10:56:28.291	0.131039
10:56:28.691	0.121550
10:56:28.991	0.110870
10:56:29.391	0.125464
10:56:29.692	0.103193
10:56:30.092	0.097154
10:56:30.392	0.106740
10:56:30.791	0.117463
10:56:31.091	0.122435
10:56:31.491	0.107524
10:56:31.791	0.099816
10:56:32.091	0.112609
10:56:32.491	0.131414
10:56:32.792	0.126276
10:56:33.092	0.104484
10:56:33.491	0.113171
10:56:33.792	0.117062
10:56:34.091	0.112338
10:56:34.491	0.116090
10:56:34.792	0.118260
10:56:35.091	0.127692
10:56:35.491	0.120227
10:56:35.792	0.120141
10:56:36.191	0.115239
10:56:36.491	0.105912
10:56:36.891	0.113712
10:56:37.191	0.107637
10:56:37.591	0.112959
10:56:37.891	0.110402
10:56:38.191	0.118127
10:56:38.592	0.113296
10:56:38.891	0.108984
10:56:39.191	0.105831
10:56:39.591	0.105040
10:56:39.891	0.111283
10:56:40.191	0.091012
10:56:40.591	0.106506
10:56:40.891	0.108567
10:56:41.191	0.108422
10:56:41.591	0.105341
10:56:41.891	0.113054
10:56:42.191	0.101316
10:56:42.592	0.104395
10:56:42.891	0.118996
10:56:43.291	0.112228
10:56:43.591	0.116492
10:56:43.991	0.108911
10:56:44.291	0.113508
10:56:44.691	0.091933
10:56:44.991	0.101198
10:56:45.391	0.122133
10:56:45.691	0.116430
10:56:45.991	0.107525
10:56:46.391	0.090931
10:56:46.692	0.113010
10:56:47.091	0.113416
10:56:47.392	0.088448
10:56:47.791	0.099979
10:56:48.091	0.105325
10:56:48.391	0.121360
10:56:48.792	0.119068
10:56:49.091	0.110530
10:56:49.391	0.112754
10:56:49.791	0.103352
10:56:50.092	0.093400
10:56:50.492	0.093320
10:56:50.792	0.098256
10:56:51.191	0.126569
10:56:51.491	0.124594
10:56:51.891	0.111296
10:56:52.192	0.107202
10:56:52.591	0.137707
10:56:52.891	0.132254
10:56:53.191	0.109783
10:56:53.591	0.115448
10:56:53.892	0.116915
10:56:54.192	0.099684
10:56:54.591	0.108866
10:56:54.892	0.116129
10:56:55.291	0.115328
10:56:55.591	0.119486
10:56:55.992	0.099396
10:56:56.291	0.096547
10:56:56.692	0.097574
10:56:56.991	0.115241
10:56:57.391	0.069106
10:56:57.692	0.089591
10:56:58.092	0.092431
10:56:58.392	0.106100
10:56:58.792	0.142734
10:56:59.092	0.106728
10:56:59.391	0.097571
10:56:59.792	0.101856
10:57:00.091	0.100399
10:57:00.392	0.091059
10:57:00.791	0.097610
10:57:01.192	0.110167
10:57:01.492	0.133370
10:57:01.892	0.117803
10:57:02.192	0.100913
10:57:02.492	0.117211
10:57:02.891	0.118950
10:57:03.192	0.116181
10:57:03.491	0.111645
10:57:03.891	0.110168
10:57:04.191	0.100970
10:57:04.592	0.129657
10:57:04.892	0.129191
10:57:05.291	0.106869
10:57:05.591	0.124867
10:57:05.991	0.123603
10:57:06.292	0.122827
10:57:06.691	0.110647
10:57:06.992	0.110757
10:57:07.292	0.113130
10:57:07.692	0.132094
10:57:07.991	0.108515
10:57:08.292	0.096801
10:57:08.692	0.112354
10:57:08.992	0.110608
10:57:09.291	0.109309
10:57:09.692	0.109160
10:57:09.992	0.118611
10:57:10.291	0.126697
10:57:10.692	0.118515
10:57:10.992	0.114532
10:57:11.392	0.113096
10:57:11.692	0.112489
10:57:12.093	0.107115
10:57:12.392	0.111290
10:57:12.792	0.111389
10:57:13.092	0.114590
10:57:13.391	0.107367
10:57:13.792	0.119472
10:57:14.091	0.124112
10:57:14.392	0.118971
10:57:14.792	0.113060
10:57:15.091	0.107334
10:57:15.491	0.115089
10:57:15.792	0.114501
10:57:16.192	0.117178
10:57:16.491	0.112839
10:57:16.892	0.112860
10:57:17.192	0.109850
10:57:17.492	0.096112
10:57:17.892	0.095149
10:57:18.192	0.094836
10:57:18.592	0.103307
10:57:18.892	0.102667
10:57:19.292	0.092886
10:57:19.593	0.094926
10:57:19.992	0.106134
10:57:20.292	0.109864
10:57:20.692	0.104982
10:57:20.992	0.116962
10:57:21.292	0.121014
10:57:21.692	0.107635
10:57:21.991	0.103675
10:57:22.392	0.092360
10:57:22.692	0.106550
10:57:23.092	0.121399
10:57:23.392	0.115314
10:57:23.692	0.122766
10:57:24.092	0.123819
10:57:24.392	0.109785
10:57:24.692	0.105095
10:57:25.091	0.086556
10:57:25.391	0.104740
10:57:25.792	0.107687
10:57:26.092	0.100132
10:57:26.492	0.122780
10:57:26.792	0.116834
10:57:27.192	0.115712
10:57:27.492	0.108481
10:57:27.892	0.098510
10:57:28.192	0.111519
10:57:28.491	0.110760
10:57:28.892	0.103122
10:57:29.191	0.109547
10:57:29.492	0.120149
10:57:29.891	0.119093
10:57:30.192	0.109143
10:57:30.592	0.100658
10:57:30.891	0.100787
10:57:31.292	0.120462
10:57:31.592	0.132856
10:57:31.992	0.122438
10:57:32.291	0.112609
10:57:32.692	0.115828
10:57:32.992	0.112991
10:57:33.392	0.108735
10:57:33.692	0.123417
10:57:34.092	0.109300
10:57:34.392	0.107932
10:57:34.792	0.115683
10:57:35.092	0.122116
10:57:35.492	0.104157
10:57:35.792	0.079965
10:57:36.192	0.109776
10:57:36.492	0.098523
10:57:36.892	0.087051
10:57:37.192	0.108656
10:57:37.592	0.111734
10:57:37.892	0.093773
10:57:38.192	0.102315
10:57:38.592	0.120908
10:57:38.892	0.140257
10:57:39.292	0.115666
10:57:39.592	0.091404
10:57:39.992	0.104434
10:57:40.292	0.100417
10:57:40.691	0.115644
10:57:40.991	0.104656
10:57:41.392	0.113121
10:57:41.692	0.123799
10:57:42.092	0.113207
10:57:42.392	0.098651
10:57:42.691	0.102551
10:57:43.092	0.090599
10:57:43.392	0.108213
10:57:43.792	0.102291
10:57:44.092	0.095764
10:57:44.492	0.105652
10:57:44.791	0.106400
10:57:45.192	0.106201
10:57:45.492	0.118481
10:57:45.792	0.114945
10:57:46.192	0.103934
10:57:46.492	0.110036
10:57:46.892	0.101588
10:57:47.191	0.098968
10:57:47.592	0.112396
10:57:47.892	0.096662
10:57:48.292	0.082022
10:57:48.592	0.082134
10:57:48.992	0.105089
10:57:49.292	0.109646
10:57:49.692	0.097494
10:57:49.992	0.105030
10:57:50.392	0.121023
10:57:50.692	0.108993
10:57:50.992	0.118429
10:57:51.392	0.097484
10:57:51.692	0.105841
10:57:52.092	0.123497
10:57:52.392	0.101595
10:57:52.792	0.113456
10:57:53.092	0.103138
10:57:53.492	0.113003
10:57:53.792	0.101744
10:57:54.192	0.100689
10:57:54.492	0.099896
10:57:54.892	0.114238
10:57:55.192	0.125941
10:57:55.592	0.090926
10:57:55.891	0.087302
10:57:56.292	0.107201
10:57:56.592	0.109277
10:57:56.892	0.087568
10:57:57.292	0.097000
10:57:57.592	0.092961
10:57:57.892	0.108177
10:57:58.293	0.106571
10:57:58.592	0.101844
10:57:58.992	0.118780
10:57:59.292	0.117165
10:57:59.692	0.102099
10:57:59.991	0.105015
10:58:00.392	0.118821
10:58:00.691	0.093363
10:58:01.091	0.118305
10:58:01.391	0.099561
10:58:01.792	0.084922
10:58:02.092	0.107422
10:58:02.492	0.090480
10:58:02.792	0.083219
10:58:03.192	0.093791
10:58:03.492	0.095018
10:58:03.892	0.101837
10:58:04.192	0.103737
10:58:04.492	0.113745
10:58:04.892	0.095955
10:58:05.192	0.101354
10:58:05.592	0.094962
10:58:05.892	0.105901
10:58:06.292	0.113674
10:58:06.592	0.103595
10:58:06.991	0.117858
10:58:07.292	0.093236
10:58:07.592	0.119245
10:58:07.992	0.104159
10:58:08.292	0.108525
10:58:08.693	0.123121
10:58:08.993	0.108325
10:58:09.392	0.093035
10:58:09.691	0.099600
10:58:10.092	0.136430
10:58:10.392	0.103618
10:58:10.792	0.117756
10:58:11.092	0.118685
10:58:11.391	0.121919
10:58:11.792	0.139486
10:58:12.092	0.128817
10:58:12.492	0.112689
10:58:12.792	0.100718
10:58:13.192	0.105415
10:58:13.492	0.123136
10:58:13.792	0.119549
10:58:14.192	0.100641
10:58:14.492	0.093320
10:58:14.792	0.100911
10:58:15.192	0.104925
10:58:15.492	0.094274
10:58:15.892	0.102999
10:58:16.192	0.076614
10:58:16.592	0.106227
10:58:16.892	0.109703
10:58:17.192	0.102064
10:58:17.592	0.095839
10:58:17.892	0.117482
10:58:18.292	0.104983
10:58:18.592	0.115749
10:58:18.892	0.097275
10:58:19.292	0.108551
10:58:19.592	0.115456
10:58:19.992	0.119433
10:58:20.292	0.098707
10:58:20.692	0.107044
10:58:20.992	0.099716
10:58:21.392	0.087455
10:58:21.692	0.117392
10:58:21.993	0.102692
10:58:22.392	0.113521
10:58:22.692	0.099237
10:58:22.992	0.081125
10:58:23.392	0.110654
10:58:23.692	0.107466
10:58:24.092	0.105322
10:58:24.392	0.092927
10:58:24.692	0.105780
10:58:25.092	0.084173
10:58:25.392	0.096166
10:58:25.791	0.101082
10:58:26.092	0.097591
10:58:26.492	0.081465
10:58:26.792	0.105977
10:58:27.192	0.090346
10:58:27.491	0.096002
10:58:27.792	0.111183
10:58:28.192	0.089593
10:58:28.492	0.100144
10:58:28.792	0.096249
10:58:29.192	0.105632
10:58:29.492	0.111324
10:58:29.892	0.107100
10:58:30.192	0.100339
10:58:30.592	0.110296
10:58:30.892	0.103285
10:58:31.292	0.085998
10:58:31.592	0.094645
10:58:31.992	0.100354
10:58:32.292	0.124585
10:58:32.692	0.103001
10:58:32.992	0.075889
10:58:33.292	0.099508
10:58:33.692	0.084997
10:58:33.992	0.090993
10:58:34.392	0.115590
10:58:34.692	0.084656
10:58:34.992	0.095882
10:58:35.392	0.101743
10:58:35.692	0.094189
10:58:36.092	0.084467
10:58:36.393	0.092389
10:58:36.792	0.092463
10:58:37.092	0.092144
10:58:37.492	0.108542
10:58:37.792	0.097302
10:58:38.192	0.109620
10:58:38.492	0.102702
10:58:38.792	0.108932
10:58:39.192	0.105747
10:58:39.492	0.105512
10:58:39.792	0.118240
10:58:40.192	0.065528
10:58:40.492	0.063829
10:58:40.892	0.076648
10:58:41.192	0.120358
10:58:41.592	0.116183
10:58:41.892	0.074066
10:58:42.292	0.080222
10:58:42.592	0.098970
10:58:42.892	0.096579
10:58:43.292	0.125463
10:58:43.592	0.093434
10:58:43.992	0.102588
10:58:44.292	0.114410
10:58:44.692	0.087266
10:58:44.992	0.091986
10:58:45.392	0.125839
10:58:45.692	0.101239
10:58:46.093	0.114054
10:58:46.392	0.100566
10:58:46.693	0.093722
10:58:47.092	0.105865
10:58:47.392	0.103703
10:58:47.792	0.084303
10:58:48.092	0.105957
10:58:48.492	0.105111
10:58:48.792	0.105746
10:58:49.192	0.100139
10:58:49.492	0.107497
10:58:49.892	0.111045
10:58:50.192	0.111199
10:58:50.592	0.098585
10:58:50.892	0.132739
10:58:51.293	0.120680
10:58:51.592	0.113432
10:58:51.992	0.114379
10:58:52.292	0.120271
10:58:52.692	0.097717
10:58:52.992	0.106464
10:58:53.393	0.094887
10:58:53.692	0.094587
10:58:54.092	0.116035
10:58:54.392	0.071934
10:58:54.792	0.084175
10:58:55.092	0.090917
10:58:55.492	0.120477
10:58:55.792	0.083018
10:58:56.192	0.099977
10:58:56.492	0.108062
10:58:56.892	0.101183
10:58:57.192	0.104238
10:58:57.592	0.101672
10:58:57.892	0.106017
10:58:58.292	0.103931
10:58:58.592	0.103252
10:58:58.992	0.093878
10:58:59.292	0.090025
10:58:59.692	0.100324
10:58:59.992	0.101629
10:59:00.392	0.095596
10:59:00.692	0.101697
10:59:00.992	0.094174
10:59:01.392	0.108767
10:59:01.692	0.098236
10:59:01.993	0.101037
10:59:02.392	0.106331
10:59:02.693	0.125523
10:59:03.093	0.110428
10:59:03.392	0.118905
10:59:03.792	0.108065
10:59:04.092	0.098638
10:59:04.492	0.102248
10:59:04.792	0.098574
10:59:05.192	0.109788
10:59:05.492	0.105764
10:59:05.892	0.126179
10:59:06.193	0.118142
10:59:06.593	0.122326
10:59:06.892	0.095239
10:59:07.193	0.096090
10:59:07.592	0.112271
10:59:07.892	0.101571
10:59:08.192	0.105282
10:59:08.593	0.112878
10:59:08.892	0.132156
10:59:09.292	0.086767
10:59:09.592	0.107087
10:59:09.992	0.114876
10:59:10.292	0.102590
10:59:10.692	0.101742
10:59:10.992	0.116450
10:59:11.292	0.101639
10:59:11.692	0.078406
10:59:11.992	0.120252
10:59:12.392	0.122031
10:59:12.692	0.126039
10:59:13.092	0.112755
10:59:13.392	0.106552
10:59:13.792	0.111051
10:59:14.092	0.095473
10:59:14.492	0.090184
10:59:14.792	0.097864
10:59:15.092	0.105162
10:59:15.492	0.128093
10:59:15.792	0.093432
10:59:16.192	0.097454
10:59:16.492	0.091220
10:59:16.892	0.119491
10:59:17.192	0.119687
10:59:17.592	0.105180
10:59:17.892	0.087305
10:59:18.192	0.092653
10:59:18.592	0.110430
10:59:18.892	0.105412
10:59:19.192	0.113099
10:59:19.592	0.087585
10:59:19.892	0.110665
10:59:20.293	0.091489
10:59:20.592	0.082454
10:59:20.992	0.085799
10:59:21.292	0.088352
10:59:21.692	0.095264
10:59:21.993	0.094358
10:59:22.392	0.084581
10:59:22.692	0.087407
10:59:23.092	0.107332
10:59:23.392	0.092735
10:59:23.792	0.097220
10:59:24.092	0.111102
10:59:24.493	0.087538
10:59:24.792	0.126713
10:59:25.192	0.088930
10:59:25.492	0.072612
10:59:25.892	0.073554
10:59:26.192	0.079908
10:59:26.592	0.088753
10:59:26.892	0.094305
10:59:27.192	0.075883
10:59:27.592	0.100892
10:59:27.892	0.099034
10:59:28.293	0.088383
10:59:28.592	0.088218
10:59:28.992	0.087340
10:59:29.292	0.078197
10:59:29.693	0.084830
10:59:29.993	0.107729
10:59:30.292	0.077731
10:59:30.692	0.080046
10:59:30.993	0.081332
10:59:31.393	0.095362
10:59:31.693	0.098500
10:59:32.092	0.076249
10:59:32.393	0.074099
10:59:32.792	0.114240
10:59:33.092	0.097323
10:59:33.392	0.082143
10:59:33.792	0.113507
10:59:34.093	0.084751
10:59:34.392	0.089436
10:59:34.792	0.078476
10:59:35.092	0.084647
10:59:35.393	0.084577
10:59:35.792	0.093211
10:59:36.092	0.102265
10:59:36.492	0.108670
10:59:36.792	0.113211
10:59:37.193	0.073410
10:59:37.492	0.107543
10:59:37.792	0.099635
10:59:38.192	0.099410
10:59:38.492	0.069739
10:59:38.892	0.083719
10:59:39.192	0.094219
10:59:39.492	0.088343
10:59:39.892	0.105591
10:59:40.193	0.090416
10:59:40.592	0.109505
10:59:40.892	0.105599
10:59:41.292	0.089316
10:59:41.592	0.099076
10:59:41.992	0.098595
10:59:42.292	0.109173
10:59:42.592	0.130087
10:59:42.992	0.119855
10:59:43.293	0.103337
10:59:43.692	0.094651
10:59:43.993	0.093172
10:59:44.392	0.081652
10:59:44.692	0.089925
10:59:45.092	0.087934
10:59:45.393	0.097024
10:59:45.793	0.092988
10:59:46.092	0.091528
10:59:46.392	0.101104
10:59:46.792	0.098374
10:59:47.093	0.105902
10:59:47.492	0.090383
10:59:47.793	0.086996
10:59:48.192	0.105302
10:59:48.492	0.099658
10:59:48.892	0.090272
10:59:49.193	0.089784
10:59:49.592	0.093672
10:59:49.892	0.089478
10:59:50.292	0.098316
10:59:50.593	0.094765
10:59:50.993	0.102569
10:59:51.293	0.096532
10:59:51.592	0.105583
10:59:51.993	0.120983
10:59:52.292	0.097450
10:59:52.692	0.089911
10:59:52.993	0.108919
10:59:53.393	0.109562
10:59:53.692	0.085813
10:59:54.092	0.107005
10:59:54.393	0.102163
10:59:54.792	0.110128
10:59:55.092	0.117746
10:59:55.492	0.095576
10:59:55.792	0.092013
10:59:56.193	0.104867
10:59:56.492	0.115779
10:59:56.892	0.101641
10:59:57.192	0.112132
10:59:57.593	0.094888
10:59:57.892	0.113488
10:59:58.293	0.094787
10:59:58.593	0.103245
10:59:58.992	0.097575
10:59:59.293	0.108266
10:59:59.692	0.127235
10:59:59.993	0.089587
11:00:00.392	0.089693
11:00:00.693	0.110023
11:00:01.092	0.107001
11:00:01.392	0.096922
11:00:01.793	0.101311
11:00:02.093	0.107193
11:00:02.493	0.109888
11:00:02.793	0.116887
11:00:03.192	0.094439
11:00:03.492	0.103098
11:00:03.893	0.098982
11:00:04.192	0.100778
11:00:04.493	0.128055
11:00:04.893	0.115468
11:00:05.193	0.099629
11:00:05.493	0.082368
11:00:05.893	0.105735
11:00:06.193	0.125757
11:00:06.593	0.128779
11:00:06.893	0.098520
11:00:07.293	0.095118
11:00:07.592	0.104986
11:00:07.992	0.094451
11:00:08.293	0.105459
11:00:08.592	0.103963
11:00:08.993	0.123693
11:00:09.293	0.106411
11:00:09.692	0.108924
11:00:09.993	0.092931
11:00:10.393	0.098031
11:00:10.693	0.115958
11:00:11.093	0.124617
11:00:11.393	0.097211
11:00:11.793	0.099512
11:00:12.093	0.103277
11:00:12.492	0.097899
11:00:12.793	0.093172
11:00:13.193	0.093473
11:00:13.493	0.090573
11:00:13.892	0.075872
11:00:14.193	0.092183
11:00:14.492	0.094396
11:00:14.893	0.090590
11:00:15.193	0.092003
11:00:15.493	0.092053
11:00:15.892	0.086608
11:00:16.192	0.075053
11:00:16.593	0.099629
11:00:16.893	0.093275
11:00:17.292	0.074537
11:00:17.593	0.069853
11:00:17.992	0.080362
11:00:18.293	0.068464
11:00:18.693	0.112564
11:00:18.992	0.103005
11:00:19.393	0.096714
11:00:19.692	0.089489
11:00:20.093	0.087839
11:00:20.393	0.075945
11:00:20.792	0.076330
11:00:21.093	0.066720
11:00:21.493	0.075228
11:00:21.793	0.095741
11:00:22.193	0.085146
11:00:22.493	0.080498
11:00:22.792	0.076340
11:00:23.192	0.113388
11:00:23.493	0.080325
11:00:23.893	0.074447
11:00:24.193	0.070967
11:00:24.593	0.108673
11:00:24.893	0.104760
11:00:25.293	0.076125
11:00:25.592	0.079384
11:00:25.993	0.072516
11:00:26.293	0.073444
11:00:26.593	0.080794
11:00:26.993	0.087287
11:00:27.293	0.079739
11:00:27.693	0.075893
11:00:27.993	0.096747
11:00:28.393	0.117301
11:00:28.692	0.080500
11:00:29.093	0.076156
11:00:29.392	0.104694
11:00:29.692	0.103914
11:00:30.093	0.069995
11:00:30.393	0.068500
11:00:30.792	0.067560
11:00:31.093	0.091722
11:00:31.493	0.088726
11:00:31.793	0.076064
11:00:32.193	0.086920
11:00:32.493	0.081753
11:00:32.793	0.076564
11:00:33.192	0.073668
11:00:33.493	0.098876
11:00:33.793	0.079672
11:00:34.192	0.072565
11:00:34.493	0.093103
11:00:34.893	0.073331
11:00:35.192	0.082047
11:00:35.593	0.083763
11:00:35.893	0.078016
11:00:36.293	0.076264
11:00:36.593	0.070495
11:00:36.894	0.087425
11:00:37.293	0.073184
11:00:37.593	0.087346
11:00:37.993	0.069513
11:00:38.292	0.080441
11:00:38.693	0.067296
11:00:38.993	0.069935
11:00:39.393	0.078589
11:00:39.693	0.072360
11:00:40.093	0.081735
11:00:40.392	0.089013
11:00:40.793	0.084399
11:00:41.093	0.078867
11:00:41.393	0.075087
11:00:41.793	0.083858
11:00:42.093	0.113592
11:00:42.492	0.080646
11:00:42.793	0.078616
11:00:43.193	0.074142
11:00:43.493	0.082455
11:00:43.893	0.107848
11:00:44.193	0.059283
11:00:44.593	0.103117
11:00:44.893	0.098780
11:00:45.293	0.087449
11:00:45.593	0.077319
11:00:45.992	0.067210
11:00:46.293	0.076946
11:00:46.693	0.099425
11:00:46.992	0.097351
11:00:47.392	0.076972
11:00:47.693	0.089989
11:00:48.093	0.096087
11:00:48.393	0.108232
11:00:48.693	0.098831
11:00:49.093	0.100154
11:00:49.393	0.079278
11:00:49.793	0.087421
11:00:50.093	0.083944
11:00:50.493	0.117821
11:00:50.793	0.121516
11:00:51.192	0.101694
11:00:51.492	0.103570
11:00:51.893	0.099903
11:00:52.193	0.108849
11:00:52.593	0.110157
11:00:52.893	0.117722
11:00:53.293	0.121719
11:00:53.593	0.114687
11:00:53.993	0.139409
11:00:54.293	0.121930
11:00:54.693	0.115072
11:00:54.993	0.115818
11:00:55.393	0.108650
11:00:55.693	0.137261
11:00:55.993	0.127258
11:00:56.393	0.121121
11:00:56.693	0.123132
11:00:57.093	0.107450
11:00:57.393	0.119828
11:00:57.793	0.115326
11:00:58.092	0.119523
11:00:58.493	0.124025
11:00:58.793	0.141016
11:00:59.093	0.147549
11:00:59.493	0.134326
11:00:59.793	0.114420
11:01:00.094	0.128098
11:01:00.492	0.160419
11:01:00.792	0.121974
11:01:01.193	0.136283
11:01:01.492	0.137327
11:01:01.893	0.117619
11:01:02.193	0.141922
11:01:02.593	0.110979
11:01:02.893	0.106405
11:01:03.293	0.129259
11:01:03.593	0.129315
11:01:03.993	0.125220
11:01:04.293	0.117495
11:01:04.692	0.118424
11:01:04.993	0.120183
11:01:05.393	0.112749
11:01:05.693	0.092867
11:01:06.094	0.117008
11:01:06.493	0.108329
11:01:06.793	0.097240
11:01:07.093	0.105972
11:01:07.493	0.095352
11:01:07.793	0.094189
11:01:08.193	0.095316
11:01:08.493	0.105672
11:01:08.893	0.116589
11:01:09.193	0.111019
11:01:09.593	0.101232
11:01:09.893	0.095289
11:01:10.293	0.103415
11:01:10.593	0.093247
11:01:10.993	0.087970
11:01:11.293	0.118650
11:01:11.693	0.113198
11:01:11.993	0.097415
11:01:12.393	0.103124
11:01:12.693	0.097550
11:01:13.093	0.097359
11:01:13.393	0.094490
11:01:13.793	0.097611
11:01:14.093	0.100103
11:01:14.493	0.101315
11:01:14.793	0.109502
11:01:15.193	0.115758
11:01:15.493	0.113388
11:01:15.792	0.104001
11:01:16.194	0.098030
11:01:16.493	0.094002
11:01:16.893	0.103734
11:01:17.193	0.109820
11:01:17.593	0.110745
11:01:17.893	0.112120
11:01:18.293	0.099669
11:01:18.593	0.092073
11:01:18.993	0.105701
11:01:19.293	0.100286
11:01:19.693	0.099013
11:01:19.993	0.098526
11:01:20.293	0.083037
11:01:20.693	0.096415
11:01:20.993	0.086236
11:01:21.393	0.093835
11:01:21.693	0.086574
11:01:22.093	0.102400
11:01:22.392	0.104044
11:01:22.793	0.108123
11:01:23.093	0.105688
11:01:23.494	0.109569
11:01:23.793	0.097586
11:01:24.194	0.091865
11:01:24.493	0.106512
11:01:24.893	0.096836
11:01:25.192	0.102303
11:01:25.593	0.096660
11:01:25.893	0.111012
11:01:26.293	0.076368
11:01:26.593	0.082268
11:01:26.893	0.116822
11:01:27.293	0.103266
11:01:27.593	0.113587
11:01:27.993	0.089251
11:01:28.293	0.079476
11:01:28.693	0.095706
11:01:28.993	0.074202
11:01:29.393	0.120739
11:01:29.693	0.119400
11:01:29.993	0.106171
11:01:30.393	0.118541
11:01:30.693	0.121686
11:01:31.093	0.128241
11:01:31.393	0.090607
11:01:31.793	0.123446
11:01:32.093	0.127394
11:01:32.494	0.118075
11:01:32.793	0.108813
11:01:33.193	0.111405
11:01:33.493	0.122587
11:01:33.893	0.123402
11:01:34.193	0.129481
11:01:34.593	0.114817
11:01:34.893	0.115732
11:01:35.293	0.124530
11:01:35.592	0.137579
11:01:35.993	0.130839
11:01:36.293	0.146681
11:01:36.693	0.130413
11:01:36.993	0.119515
11:01:37.393	0.149282
11:01:37.693	0.163976
11:01:37.993	0.155513
11:01:38.393	0.139550
11:01:38.693	0.178124
11:01:38.993	0.178451
11:01:39.393	0.153545
11:01:39.693	0.141969
11:01:40.093	0.159986
11:01:40.393	0.163198
11:01:40.793	0.157360
11:01:41.093	0.207203
11:01:41.493	0.174320
11:01:41.793	0.182138
11:01:42.093	0.205637
11:01:42.493	0.189969
11:01:42.793	0.195517
11:01:43.193	0.178303
11:01:43.494	0.185281
11:01:43.893	0.227252
11:01:44.193	0.221174
11:01:44.593	0.224879
11:01:44.893	0.237023
11:01:45.193	0.229597
11:01:45.593	0.231104
11:01:45.893	0.242398
11:01:46.193	0.230372
11:01:46.594	0.240456
11:01:46.893	0.236572
11:01:47.293	0.266860
11:01:47.593	0.275295
11:01:47.993	0.273605
11:01:48.293	0.264081
11:01:48.693	0.271175
11:01:48.993	0.290877
11:01:49.393	0.319871
11:01:49.693	0.305511
11:01:50.093	0.292662
11:01:50.393	0.259210
11:01:50.793	0.267118
11:01:51.093	0.320535
11:01:51.393	0.309370
11:01:51.793	0.285322
11:01:52.093	0.310914
11:01:52.393	0.306372
11:01:52.793	0.304458
11:01:53.094	0.276014
11:01:53.393	0.272567
11:01:53.793	0.295278
11:01:54.093	0.293459
11:01:54.394	0.294335
11:01:54.794	0.290819
11:01:55.093	0.262955
11:01:55.394	0.264633
11:01:55.793	0.283849
11:01:56.093	0.286342
11:01:56.494	0.294566
11:01:56.793	0.283749
11:01:57.193	0.274060
11:01:57.494	0.290668
11:01:57.893	0.317134
11:01:58.193	0.293995
11:01:58.493	0.303836
11:01:58.893	0.358555
11:01:59.193	0.319670
11:01:59.494	0.330766
11:01:59.894	0.359051
11:02:00.193	0.370755
11:02:00.593	0.363148
11:02:00.893	0.353483
11:02:01.293	0.376876
11:02:01.593	0.398179
11:02:01.894	0.393848
11:02:02.293	0.407663
11:02:02.593	0.413708
11:02:02.993	0.436954
11:02:03.293	0.449176
11:02:03.694	0.445969
11:02:03.993	0.490181
11:02:04.393	0.468566
11:02:04.693	0.487105
11:02:05.093	0.493624
11:02:05.393	0.558387
11:02:05.793	0.509017
11:02:06.093	0.545889
11:02:06.493	0.573943
11:02:06.793	0.582059
11:02:07.193	0.560001
11:02:07.493	0.587976
11:02:07.893	0.572626
11:02:08.193	0.583636
11:02:08.593	0.598515
11:02:08.893	0.567625
11:02:09.194	0.575564
11:02:09.593	0.614516
11:02:09.893	0.602328
11:02:10.193	0.614834
11:02:10.593	0.597310
11:02:10.893	0.585163
11:02:11.193	0.605484
11:02:11.594	0.588744
11:02:11.894	0.613895
11:02:12.293	0.572097
11:02:12.593	0.558659
11:02:12.994	0.575529
11:02:13.293	0.585271
11:02:13.693	0.542016
11:02:13.994	0.556400
11:02:14.393	0.548708
11:02:14.693	0.546507
11:02:15.093	0.516609
11:02:15.393	0.515323
11:02:15.793	0.493273
11:02:16.094	0.495281
11:02:16.393	0.487242
11:02:16.794	0.465299
11:02:17.093	0.459757
11:02:17.493	0.424697
11:02:17.894	0.406614
11:02:18.193	0.400012
11:02:18.593	0.377123
11:02:18.893	0.382597
11:02:19.293	0.365931
11:02:19.593	0.351006
11:02:19.993	0.334823
11:02:20.294	0.331308
11:02:20.694	0.315348
11:02:20.993	0.299003
11:02:21.293	0.304643
11:02:21.693	0.318705
11:02:21.994	0.307720
11:02:22.393	0.283553
11:02:22.694	0.269595
11:02:23.094	0.273350
11:02:23.393	0.273052
11:02:23.793	0.256413
11:02:24.094	0.261760
11:02:24.394	0.262370
11:02:24.793	0.269138
11:02:25.093	0.251418
11:02:25.493	0.247634
11:02:25.794	0.253839
11:02:26.193	0.293497
11:02:26.493	0.242426
11:02:26.893	0.268584
11:02:27.194	0.268606
11:02:27.493	0.247158
11:02:27.893	0.271457
11:02:28.193	0.274477
11:02:28.493	0.258205
11:02:28.893	0.261952
11:02:29.193	0.250785
11:02:29.593	0.231945
11:02:29.893	0.248018
11:02:30.293	0.226618
11:02:30.593	0.240660
11:02:30.993	0.223042
11:02:31.293	0.258988
11:02:31.693	0.229795
11:02:31.993	0.237197
11:02:32.394	0.233080
11:02:32.693	0.238734
11:02:33.093	0.237038
11:02:33.393	0.269192
11:02:33.794	0.239821
11:02:34.094	0.245164
11:02:34.493	0.263462
11:02:34.793	0.261571
11:02:35.193	0.255985
11:02:35.493	0.241467
11:02:35.893	0.259849
11:02:36.193	0.255942
11:02:36.593	0.252410
11:02:36.893	0.251218
11:02:37.293	0.246388
11:02:37.593	0.236910
11:02:37.994	0.249642
11:02:38.293	0.282928
11:02:38.593	0.275698
11:02:38.994	0.284570
11:02:39.294	0.263412
11:02:39.693	0.251450
11:02:39.993	0.261298
11:02:40.393	0.258838
11:02:40.693	0.289265
11:02:41.094	0.264116
11:02:41.394	0.253548
11:02:41.793	0.259717
11:02:42.094	0.253716
11:02:42.394	0.250371
11:02:42.793	0.268961
11:02:43.093	0.275779
11:02:43.393	0.275731
11:02:43.793	0.262700
11:02:44.093	0.267737
11:02:44.493	0.275752
11:02:44.794	0.263117
11:02:45.193	0.267123
11:02:45.493	0.258012
11:02:45.893	0.255462
11:02:46.194	0.274941
11:02:46.593	0.309693
11:02:46.893	0.304934
11:02:47.293	0.295490
11:02:47.594	0.320560
11:02:47.994	0.322164
11:02:48.293	0.307749
11:02:48.693	0.315245
11:02:48.994	0.313149
11:02:49.393	0.332178
11:02:49.693	0.329642
11:02:50.093	0.326490
11:02:50.393	0.349325
11:02:50.694	0.355773
11:02:51.094	0.342308
11:02:51.394	0.343836
11:02:51.793	0.412018
11:02:52.094	0.405007
11:02:52.393	0.361276
11:02:52.793	0.371267
11:02:53.093	0.455885
11:02:53.493	0.454363
11:02:53.794	0.448953
11:02:54.193	0.469330
11:02:54.494	0.502062
11:02:54.893	0.483761
11:02:55.193	0.484091
11:02:55.494	0.508641
11:02:55.893	0.556913
11:02:56.193	0.533883
11:02:56.493	0.585089
11:02:56.894	0.595567
11:02:57.194	0.626254
11:02:57.494	0.647800
11:02:57.894	0.659355
11:02:58.193	0.666716
11:02:58.593	0.686678
11:02:58.893	0.728078
11:02:59.294	0.700020
11:02:59.593	0.712383
11:02:59.994	0.782385
11:03:00.293	0.758056
11:03:00.694	0.763863
11:03:00.994	0.790749
11:03:01.393	0.833241
11:03:01.694	0.809280
11:03:02.094	0.785049
11:03:02.493	0.783287
11:03:02.794	0.817364
11:03:03.193	0.852707
11:03:03.494	0.854833
11:03:03.894	0.824705
11:03:04.194	0.853247
11:03:04.494	0.886989
11:03:04.894	0.812819
11:03:05.194	0.861308
11:03:05.594	0.848526
11:03:05.993	0.833974
11:03:06.294	0.819607
11:03:06.593	0.797834
11:03:06.994	0.777999
11:03:07.293	0.758815
11:03:07.594	0.745666
11:03:07.994	0.756434
11:03:08.294	0.749781
11:03:08.593	0.747366
11:03:08.993	0.730322
11:03:09.293	0.714006
11:03:09.694	0.687593
11:03:09.994	0.680916
11:03:10.393	0.643218
11:03:10.694	0.615602
11:03:10.993	0.611896
11:03:11.393	0.589943
11:03:11.694	0.609336
11:03:12.094	0.565753
11:03:12.393	0.543694
11:03:12.793	0.517197
11:03:13.094	0.509115
11:03:13.393	0.487276
11:03:13.794	0.429144
11:03:14.093	0.416068
11:03:14.494	0.379470
11:03:14.793	0.368319
11:03:15.193	0.357839
11:03:15.494	0.342962
11:03:15.793	0.336369
11:03:16.194	0.319591
11:03:16.493	0.338807
11:03:16.793	0.314926
11:03:17.193	0.280738
11:03:17.493	0.286896
11:03:17.794	0.215664
11:03:18.194	0.274293
11:03:18.494	0.252776
11:03:18.794	0.224157
11:03:19.193	0.220546
11:03:19.494	0.225973
11:03:19.894	0.248497
11:03:20.194	0.194867
11:03:20.594	0.201340
11:03:20.893	0.206476
11:03:21.294	0.168954
11:03:21.594	0.165831
11:03:21.994	0.168664
11:03:22.294	0.168582
11:03:22.594	0.164758
11:03:22.994	0.177980
11:03:23.294	0.166644
11:03:23.594	0.156949
11:03:23.994	0.144805
11:03:24.293	0.135604
11:03:24.694	0.134179
11:03:24.994	0.150029
11:03:25.295	0.124664
11:03:25.693	0.128834
11:03:25.993	0.117460
11:03:26.394	0.110935
11:03:26.696	0.120448
11:03:27.094	0.086720
11:03:27.394	0.092500
11:03:27.694	0.109094
11:03:28.093	0.123771
11:03:28.394	0.144375
11:03:28.693	0.134146
11:03:29.094	0.118610
11:03:29.394	0.105786
11:03:29.793	0.117531
11:03:30.094	0.120436
11:03:30.494	0.086859
11:03:30.794	0.081181
11:03:31.094	0.094544
11:03:31.494	0.090411
11:03:31.794	0.060716
11:03:32.194	0.101621
11:03:32.494	0.094512
11:03:32.793	0.107166
11:03:33.193	0.053342
11:03:33.494	0.069061
11:03:33.894	0.091247
11:03:34.194	0.107372
11:03:34.594	0.096952
11:03:34.893	0.074364
11:03:35.194	0.091171
11:03:35.594	0.075199
11:03:35.994	0.082761
11:03:36.294	0.095127
11:03:36.594	0.078595
11:03:36.994	0.084792
11:03:37.293	0.082762
11:03:37.694	0.081474
11:03:37.994	0.076268
11:03:38.393	0.097153
11:03:38.694	0.079025
11:03:38.994	0.074483
11:03:39.394	0.068964
11:03:39.695	0.087913
11:03:39.994	0.084002
11:03:40.394	0.085269
11:03:40.694	0.082814
11:03:40.994	0.085923
11:03:41.394	0.071456
11:03:41.694	0.078723
11:03:41.994	0.078038
11:03:42.394	0.076146
11:03:42.694	0.079314
11:03:43.094	0.074681
11:03:43.394	0.081901
11:03:43.695	0.105845
11:03:44.094	0.087456
11:03:44.394	0.086965
11:03:44.794	0.083328
11:03:45.094	0.083418
11:03:45.494	0.066728
11:03:45.793	0.067470
11:03:46.094	0.070301
11:03:46.494	0.080688
11:03:46.794	0.081604
11:03:47.194	0.089153
11:03:47.494	0.099575
11:03:47.894	0.091565
11:03:48.194	0.080970
11:03:48.594	0.078109
11:03:48.894	0.074597
11:03:49.194	0.074105
11:03:49.593	0.065647
11:03:49.894	0.072010
11:03:50.294	0.074933
11:03:50.594	0.064375
11:03:50.994	0.056556
11:03:51.294	0.063223
11:03:51.694	0.074888
11:03:51.994	0.065352
11:03:52.394	0.075617
11:03:52.694	0.091919
11:03:52.994	0.074897
11:03:53.394	0.087119
11:03:53.694	0.077928
11:03:53.994	0.063410
11:03:54.394	0.073744
11:03:54.694	0.064141
11:03:55.093	0.065326
11:03:55.394	0.062777
11:03:55.693	0.074811
11:03:56.093	0.068990
11:03:56.394	0.065496
11:03:56.794	0.067579
11:03:57.095	0.064415
11:03:57.494	0.064667
11:03:57.794	0.056320
11:03:58.194	0.057090
11:03:58.493	0.067610
11:03:58.794	0.072060
11:03:59.194	0.086926
11:03:59.493	0.061848
11:03:59.795	0.038628
11:04:00.194	0.076353
11:04:00.493	0.078130
11:04:00.794	0.075322
11:04:01.194	0.070518
11:04:01.494	0.071267
11:04:01.894	0.066731
11:04:02.194	0.072289
11:04:02.594	0.059276
11:04:02.894	0.069328
11:04:03.194	0.065783
11:04:03.594	0.075169
11:04:03.894	0.072055
11:04:04.294	0.077752
11:04:04.593	0.062500
11:04:04.894	0.055537
11:04:05.294	0.064880
11:04:05.594	0.082474
11:04:05.894	0.081148
11:04:06.295	0.071791
11:04:06.594	0.074622
11:04:06.894	0.064352