Chart Recorder Data File Tue, Sep 24, 2024 9:53 AM
Time (s)	CH1 (V)  
09:45:11.768	-0.059597
09:45:12.568	-0.059412
09:45:12.868	-0.060053
09:45:13.268	-0.058733
09:45:13.568	-0.061127
09:45:13.968	-0.059105
09:45:14.268	-0.058573
09:45:14.668	-0.061948
09:45:14.968	-0.058758
09:45:15.369	-0.059497
09:45:15.668	-0.060295
09:45:16.069	-0.059544
09:45:16.368	-0.060780
09:45:16.768	-0.061485
09:45:17.068	-0.059184
09:45:17.368	-0.058198
09:45:17.768	-0.060211
09:45:18.069	-0.059054
09:45:18.369	-0.058796
09:45:18.768	-0.060026
09:45:19.069	-0.058237
09:45:19.468	-0.059091
09:45:19.768	-0.058236
09:45:20.169	-0.059251
09:45:20.468	-0.059647
09:45:20.868	-0.057756
09:45:21.168	-0.057182
09:45:21.468	-0.059367
09:45:21.868	-0.059659
09:45:22.168	-0.060982
09:45:22.468	-0.058443
09:45:22.869	-0.056417
09:45:23.168	-0.057292
09:45:23.568	-0.056974
09:45:23.868	-0.058375
09:45:24.168	-0.056639
09:45:24.569	-0.057162
09:45:24.868	-0.057519
09:45:25.268	-0.057615
09:45:25.569	-0.058038
09:45:25.968	-0.058133
09:45:26.268	-0.057119
09:45:26.668	-0.058168
09:45:26.968	-0.057203
09:45:27.268	-0.058463
09:45:27.668	-0.058439
09:45:27.969	-0.056644
09:45:28.268	-0.056310
09:45:28.668	-0.057425
09:45:28.968	-0.056500
09:45:29.369	-0.054317
09:45:29.668	-0.055889
09:45:29.968	-0.056569
09:45:30.368	-0.056435
09:45:30.768	-0.055371
09:45:31.069	-0.057068
09:45:31.369	-0.055976
09:45:31.768	-0.054960
09:45:32.068	-0.055901
09:45:32.469	-0.053668
09:45:32.769	-0.053999
09:45:33.168	-0.054837
09:45:33.468	-0.054894
09:45:33.869	-0.055025
09:45:34.168	-0.054164
09:45:34.568	-0.053300
09:45:34.868	-0.052466
09:45:35.268	-0.054448
09:45:35.568	-0.054530
09:45:35.969	-0.054289
09:45:36.268	-0.054304
09:45:36.668	-0.053470
09:45:36.969	-0.052935
09:45:37.368	-0.052644
09:45:37.768	-0.053055
09:45:38.068	-0.052355
09:45:38.368	-0.053006
09:45:38.769	-0.052927
09:45:39.068	-0.053413
09:45:39.368	-0.054567
09:45:39.768	-0.051490
09:45:40.068	-0.053564
09:45:40.369	-0.051088
09:45:40.768	-0.051543
09:45:41.068	-0.050838
09:45:41.368	-0.053210
09:45:41.768	-0.052897
09:45:42.068	-0.052484
09:45:42.368	-0.049325
09:45:42.768	-0.052230
09:45:43.068	-0.052449
09:45:43.368	-0.049437
09:45:43.768	-0.048090
09:45:44.068	-0.049822
09:45:44.369	-0.048046
09:45:44.768	-0.050056
09:45:45.068	-0.051152
09:45:45.469	-0.050494
09:45:45.768	-0.049587
09:45:46.168	-0.050436
09:45:46.469	-0.051574
09:45:46.869	-0.049981
09:45:47.168	-0.049079
09:45:47.468	-0.052578
09:45:47.868	-0.051267
09:45:48.168	-0.048845
09:45:48.568	-0.049738
09:45:48.868	-0.048828
09:45:49.268	-0.047569
09:45:49.568	-0.048013
09:45:49.969	-0.050823
09:45:50.268	-0.050457
09:45:50.669	-0.048528
09:45:50.968	-0.048374
09:45:51.368	-0.052894
09:45:51.668	-0.051024
09:45:52.068	-0.052376
09:45:52.368	-0.049962
09:45:52.668	-0.049671
09:45:53.068	-0.050312
09:45:53.369	-0.050088
09:45:53.769	-0.049479
09:45:54.068	-0.051333
09:45:54.468	-0.050073
09:45:54.768	-0.049826
09:45:55.169	-0.049767
09:45:55.469	-0.050210
09:45:55.869	-0.051725
09:45:56.169	-0.051000
09:45:56.468	-0.048283
09:45:56.869	-0.050571
09:45:57.168	-0.054279
09:45:57.568	-0.049106
09:45:57.868	-0.050116
09:45:58.268	-0.049499
09:45:58.568	-0.050525
09:45:58.969	-0.047915
09:45:59.268	-0.047132
09:45:59.568	-0.049617
09:45:59.968	-0.048028
09:46:00.269	-0.045786
09:46:00.669	-0.047935
09:46:00.968	-0.045306
09:46:01.368	-0.045560
09:46:01.668	-0.044883
09:46:02.069	-0.043232
09:46:02.369	-0.042197
09:46:02.768	-0.032954
09:46:03.068	0.018029
09:46:03.468	0.103263
09:46:03.768	0.471301
09:46:04.168	0.901039
09:46:04.469	1.226495
09:46:04.868	1.467633
09:46:05.168	1.558266
09:46:05.469	1.695821
09:46:05.869	1.723494
09:46:06.169	1.697113
09:46:06.568	1.545458
09:46:06.869	1.245944
09:46:07.169	1.097336
09:46:07.568	0.827071
09:46:07.868	0.547826
09:46:08.268	0.331684
09:46:08.568	0.240486
09:46:08.869	0.094511
09:46:09.268	0.014090
09:46:09.568	-0.008870
09:46:09.969	-0.036329
09:46:10.268	-0.048908
09:46:10.568	-0.050688
09:46:10.968	-0.050918
09:46:11.269	-0.049618
09:46:11.668	-0.052608
09:46:11.969	-0.050703
09:46:12.369	-0.053871
09:46:12.668	-0.052397
09:46:13.069	-0.052681
09:46:13.368	-0.054275
09:46:13.769	-0.053479
09:46:14.068	-0.054204
09:46:14.469	-0.053698
09:46:14.769	-0.054697
09:46:15.168	-0.054340
09:46:15.468	-0.055545
09:46:15.869	-0.056482
09:46:16.169	-0.054824
09:46:16.569	-0.055945
09:46:16.869	-0.054947
09:46:17.269	-0.056615
09:46:17.568	-0.056950
09:46:17.968	-0.056028
09:46:18.269	-0.056680
09:46:18.669	-0.056888
09:46:18.968	-0.055192
09:46:19.369	-0.055582
09:46:19.668	-0.056907
09:46:20.069	-0.057141
09:46:20.369	-0.057830
09:46:20.769	-0.056666
09:46:21.069	-0.059364
09:46:21.470	-0.057066
09:46:21.768	-0.056019
09:46:22.169	-0.057531
09:46:22.469	-0.057982
09:46:22.869	-0.059683
09:46:23.168	-0.059060
09:46:23.568	-0.057267
09:46:23.868	-0.060176
09:46:24.269	-0.058881
09:46:24.569	-0.059209
09:46:24.969	-0.059341
09:46:25.269	-0.058716
09:46:25.668	-0.056457
09:46:25.969	-0.057855
09:46:26.369	-0.058378
09:46:26.668	-0.058518
09:46:26.968	-0.058597
09:46:27.369	-0.058482
09:46:27.669	-0.058537
09:46:28.069	-0.058934
09:46:28.369	-0.058462
09:46:28.769	-0.059753
09:46:29.069	-0.058523
09:46:29.468	-0.059794
09:46:29.769	-0.058754
09:46:30.169	-0.057959
09:46:30.469	-0.058548
09:46:30.768	-0.057876
09:46:31.169	-0.059822
09:46:31.468	-0.058902
09:46:31.868	-0.057599
09:46:32.168	-0.061883
09:46:32.569	-0.059710
09:46:32.868	-0.059293
09:46:33.269	-0.058996
09:46:33.568	-0.057959
09:46:33.969	-0.060035
09:46:34.269	-0.060970
09:46:34.669	-0.059373
09:46:34.969	-0.059666
09:46:35.369	-0.059383
09:46:35.669	-0.059232
09:46:35.969	-0.060175
09:46:36.368	-0.060657
09:46:36.669	-0.058360
09:46:37.069	-0.060755
09:46:37.369	-0.059382
09:46:37.769	-0.059098
09:46:38.068	-0.059232
09:46:38.470	-0.058217
09:46:38.769	-0.058294
09:46:39.169	-0.058746
09:46:39.469	-0.061294
09:46:39.770	-0.061478
09:46:40.170	-0.059087
09:46:40.469	-0.058355
09:46:40.869	-0.056497
09:46:41.168	-0.060591
09:46:41.569	-0.060224
09:46:41.869	-0.060046
09:46:42.270	-0.059889
09:46:42.569	-0.059424
09:46:42.969	-0.059408
09:46:43.268	-0.060305
09:46:43.669	-0.059859
09:46:43.970	-0.057918
09:46:44.369	-0.059894
09:46:44.669	-0.059056
09:46:44.969	-0.060307
09:46:45.369	-0.058889
09:46:45.669	-0.058859
09:46:45.969	-0.060092
09:46:46.369	-0.059970
09:46:46.669	-0.060416
09:46:46.969	-0.059632
09:46:47.369	-0.059170
09:46:47.669	-0.058484
09:46:48.069	-0.059367
09:46:48.369	-0.060491
09:46:48.769	-0.058856
09:46:49.069	-0.059754
09:46:49.469	-0.059909
09:46:49.769	-0.059928
09:46:50.069	-0.059270
09:46:50.469	-0.058926
09:46:50.769	-0.059809
09:46:51.168	-0.060396
09:46:51.469	-0.060093
09:46:51.770	-0.060755
09:46:52.169	-0.060389
09:46:52.469	-0.058561
09:46:52.868	-0.058148
09:46:53.169	-0.058412
09:46:53.569	-0.058801
09:46:53.869	-0.058717
09:46:54.269	-0.059888
09:46:54.569	-0.060075
09:46:54.870	-0.058144
09:46:55.269	-0.058311
09:46:55.569	-0.058719
09:46:55.969	-0.058894
09:46:56.269	-0.059509
09:46:56.668	-0.060168
09:46:56.969	-0.059566
09:46:57.369	-0.059139
09:46:57.668	-0.059244
09:46:58.068	-0.060485
09:46:58.369	-0.060159
09:46:58.769	-0.060447
09:46:59.069	-0.060412
09:46:59.469	-0.059938
09:46:59.769	-0.058189
09:47:00.069	-0.057522
09:47:00.469	-0.059188
09:47:00.769	-0.060995
09:47:01.069	-0.060661
09:47:01.468	-0.060209
09:47:01.768	-0.059417
09:47:02.169	-0.058993
09:47:02.569	-0.058994
09:47:02.868	-0.059468
09:47:03.269	-0.060433
09:47:03.569	-0.058804
09:47:03.969	-0.059470
09:47:04.269	-0.058305
09:47:04.670	-0.059755
09:47:04.969	-0.059486
09:47:05.370	-0.058407
09:47:05.668	-0.060003
09:47:06.069	-0.058937
09:47:06.369	-0.058451
09:47:06.769	-0.058817
09:47:07.069	-0.060306
09:47:07.470	-0.059822
09:47:07.768	-0.059694
09:47:08.069	-0.058288
09:47:08.469	-0.058490
09:47:08.769	-0.059175
09:47:09.169	-0.060313
09:47:09.469	-0.061071
09:47:09.869	-0.058886
09:47:10.168	-0.059503
09:47:10.569	-0.059960
09:47:10.869	-0.059657
09:47:11.169	-0.058726
09:47:11.569	-0.059747
09:47:11.868	-0.058415
09:47:12.269	-0.059541
09:47:12.569	-0.058393
09:47:12.969	-0.059324
09:47:13.269	-0.058857
09:47:13.669	-0.058840
09:47:13.968	-0.058824
09:47:14.369	-0.059980
09:47:14.669	-0.059500
09:47:14.969	-0.059374
09:47:15.368	-0.057976
09:47:15.669	-0.056814
09:47:16.070	-0.056658
09:47:16.369	-0.058306
09:47:16.769	-0.059488
09:47:17.069	-0.059666
09:47:17.469	-0.059262
09:47:17.769	-0.059211
09:47:18.169	-0.058359
09:47:18.469	-0.058533
09:47:18.869	-0.058437
09:47:19.169	-0.060442
09:47:19.569	-0.058948
09:47:19.869	-0.058763
09:47:20.269	-0.056844
09:47:20.569	-0.058258
09:47:20.969	-0.057333
09:47:21.269	-0.056944
09:47:21.669	-0.057798
09:47:21.969	-0.058662
09:47:22.269	-0.058620
09:47:22.669	-0.057861
09:47:22.970	-0.057350
09:47:23.369	-0.057630
09:47:23.669	-0.058025
09:47:23.969	-0.058587
09:47:24.369	-0.058200
09:47:24.669	-0.057473
09:47:25.068	-0.058858
09:47:25.369	-0.058318
09:47:25.769	-0.056944
09:47:26.069	-0.058328
09:47:26.469	-0.056493
09:47:26.769	-0.056902
09:47:27.169	-0.056933
09:47:27.468	-0.057631
09:47:27.769	-0.055407
09:47:28.168	-0.054169
09:47:28.569	-0.058873
09:47:28.869	-0.055161
09:47:29.169	-0.057441
09:47:29.570	-0.060246
09:47:29.869	-0.058770
09:47:30.269	-0.058173
09:47:30.569	-0.054633
09:47:30.969	-0.057556
09:47:31.269	-0.057283
09:47:31.669	-0.056354
09:47:31.969	-0.057808
09:47:32.369	-0.057454
09:47:32.669	-0.057496
09:47:32.969	-0.056774
09:47:33.369	-0.057437
09:47:33.669	-0.058083
09:47:34.069	-0.057282
09:47:34.369	-0.056372
09:47:34.769	-0.058021
09:47:35.069	-0.054989
09:47:35.469	-0.054534
09:47:35.769	-0.053764
09:47:36.069	-0.055249
09:47:36.469	-0.054628
09:47:36.769	-0.053168
09:47:37.069	-0.052250
09:47:37.469	-0.050196
09:47:37.769	-0.049930
09:47:38.069	-0.050699
09:47:38.469	-0.049490
09:47:38.769	-0.053077
09:47:39.169	-0.053547
09:47:39.469	-0.052773
09:47:39.869	-0.055875
09:47:40.170	-0.057050
09:47:40.469	-0.055762
09:47:40.869	-0.056679
09:47:41.169	-0.056438
09:47:41.569	-0.056183
09:47:41.869	-0.058225
09:47:42.169	-0.055401
09:47:42.569	-0.054714
09:47:42.869	-0.055849
09:47:43.269	-0.053725
09:47:43.569	-0.055146
09:47:43.969	-0.054800
09:47:44.269	-0.055695
09:47:44.669	-0.055175
09:47:44.969	-0.056337
09:47:45.269	-0.054727
09:47:45.669	-0.055708
09:47:45.969	-0.056858
09:47:46.369	-0.055185
09:47:46.669	-0.055958
09:47:47.069	-0.054841
09:47:47.370	-0.053657
09:47:47.769	-0.051009
09:47:48.069	-0.048847
09:47:48.469	-0.048777
09:47:48.769	-0.048101
09:47:49.169	-0.048871
09:47:49.469	-0.047502
09:47:49.869	-0.046904
09:47:50.169	-0.047625
09:47:50.469	-0.050391
09:47:50.869	-0.053854
09:47:51.169	-0.054044
09:47:51.469	-0.055634
09:47:51.869	-0.051486
09:47:52.169	-0.052348
09:47:52.569	-0.052720
09:47:52.869	-0.053305
09:47:53.269	-0.051427
09:47:53.569	-0.054818
09:47:53.869	-0.053221
09:47:54.269	-0.051407
09:47:54.569	-0.052183
09:47:54.969	-0.050674
09:47:55.269	-0.050224
09:47:55.669	-0.053221
09:47:55.969	-0.053204
09:47:56.270	-0.051043
09:47:56.669	-0.051959
09:47:56.969	-0.048542
09:47:57.269	-0.052945
09:47:57.669	-0.050328
09:47:57.969	-0.049856
09:47:58.369	-0.048324
09:47:58.669	-0.049074
09:47:59.069	-0.048871
09:47:59.369	-0.049597
09:47:59.769	-0.051097
09:48:00.069	-0.052162
09:48:00.469	-0.050977
09:48:00.769	-0.050489
09:48:01.169	-0.051308
09:48:01.469	-0.049088
09:48:01.869	-0.047917
09:48:02.169	-0.046885
09:48:02.569	-0.044916
09:48:02.869	-0.043400
09:48:03.269	-0.041707
09:48:03.569	-0.042602
09:48:03.969	-0.042686
09:48:04.269	-0.042369
09:48:04.569	-0.043646
09:48:04.969	-0.046072
09:48:05.270	-0.045827
09:48:05.569	-0.045287
09:48:05.969	-0.043406
09:48:06.269	-0.042898
09:48:06.569	-0.042355
09:48:06.970	-0.038567
09:48:07.270	-0.040453
09:48:07.669	-0.040635
09:48:07.969	-0.041404
09:48:08.269	-0.040688
09:48:08.669	-0.042651
09:48:08.969	-0.042086
09:48:09.369	-0.036984
09:48:09.669	-0.039945
09:48:10.069	-0.038662
09:48:10.370	-0.038112
09:48:10.669	-0.035386
09:48:11.069	-0.032503
09:48:11.369	-0.032807
09:48:11.669	-0.033213
09:48:12.069	-0.030784
09:48:12.369	-0.030509
09:48:12.670	-0.031023
09:48:13.070	-0.030356
09:48:13.369	-0.028844
09:48:13.670	-0.030090
09:48:14.069	-0.031995
09:48:14.369	-0.026269
09:48:14.769	-0.026117
09:48:15.069	-0.027549
09:48:15.369	-0.027269
09:48:15.769	-0.028196
09:48:16.069	-0.025808
09:48:16.469	-0.030845
09:48:16.769	-0.030801
09:48:17.169	-0.029640
09:48:17.469	-0.031045
09:48:17.869	-0.033237
09:48:18.169	-0.030715
09:48:18.469	-0.027429
09:48:18.869	-0.028487
09:48:19.169	-0.025879
09:48:19.469	-0.028998
09:48:19.869	-0.025804
09:48:20.169	-0.025765
09:48:20.469	-0.029247
09:48:20.869	-0.024437
09:48:21.169	-0.026406
09:48:21.569	-0.025257
09:48:21.870	-0.025191
09:48:22.269	-0.029762
09:48:22.569	-0.029129
09:48:22.969	-0.025099
09:48:23.269	-0.028495
09:48:23.669	-0.027338
09:48:23.969	-0.028990
09:48:24.369	-0.029285
09:48:24.669	-0.026959
09:48:25.069	-0.025789
09:48:25.369	-0.025545
09:48:25.669	-0.023759
09:48:26.069	-0.025393
09:48:26.369	-0.024494
09:48:26.669	-0.023871
09:48:27.069	-0.023130
09:48:27.370	-0.019732
09:48:27.770	-0.024052
09:48:28.069	-0.022851
09:48:28.469	-0.018972
09:48:28.769	-0.019354
09:48:29.169	-0.019250
09:48:29.470	-0.017995
09:48:29.769	0.008537
09:48:30.169	0.061628
09:48:30.469	0.090335
09:48:30.869	0.164366
09:48:31.169	0.333739
09:48:31.469	0.716590
09:48:31.869	4.502911
09:48:33.169	2.980551
09:48:33.469	2.481034
09:48:33.770	1.275161
09:48:35.069	0.799202
09:48:35.369	0.550699
09:48:35.669	0.190772
09:48:36.070	0.061469
09:48:36.369	0.027367
09:48:36.669	-0.007584
09:48:37.070	-0.016697
09:48:37.369	-0.024691
09:48:37.770	-0.024664
09:48:38.069	-0.023655
09:48:38.470	-0.022016
09:48:38.769	-0.015124
09:48:39.169	-0.018035
09:48:39.470	-0.020924
09:48:39.870	-0.024908
09:48:40.169	-0.024368
09:48:40.569	-0.023054
09:48:40.869	-0.022329
09:48:41.270	-0.024645
09:48:41.569	-0.024050
09:48:41.969	-0.025339
09:48:42.270	-0.023637
09:48:42.569	-0.021890
09:48:42.969	-0.014267
09:48:43.270	-0.004538
09:48:43.569	-0.003225
09:48:43.970	0.012684
09:48:44.269	0.020222
09:48:44.669	0.026417
09:48:44.969	0.032469
09:48:45.369	0.042425
09:48:45.669	0.046911
09:48:45.969	0.047971
09:48:46.370	0.046696
09:48:46.769	0.049521
09:48:47.070	0.048755
09:48:47.469	0.050349
09:48:47.769	0.052281
09:48:48.169	0.047053
09:48:48.469	0.041317
09:48:48.869	0.039469
09:48:49.169	0.040910
09:48:49.470	0.032067
09:48:49.869	0.032113
09:48:50.169	0.036422
09:48:50.569	0.033483
09:48:50.869	0.033980
09:48:51.269	0.030850
09:48:51.569	0.029639
09:48:51.969	0.035909
09:48:52.270	0.037252
09:48:52.570	0.038680
09:48:52.969	0.036417
09:48:53.270	0.034328
09:48:53.669	0.030361
09:48:53.969	0.029859
09:48:54.369	0.023368
09:48:54.669	0.021306
09:48:55.069	0.026186
09:48:55.369	0.029992
09:48:55.769	0.023272
09:48:56.069	0.021645
09:48:56.370	0.022881
09:48:56.769	0.019025
09:48:57.069	0.020533
09:48:57.469	0.014348
09:48:57.769	0.015240
09:48:58.170	0.013611
09:48:58.470	0.012787
09:48:58.870	0.013287
09:48:59.169	0.015136
09:48:59.569	0.010574
09:48:59.869	0.012304
09:49:00.270	0.013410
09:49:00.570	0.025761
09:49:00.970	0.034964
09:49:01.269	0.042319
09:49:01.570	0.046101
09:49:01.969	0.043493
09:49:02.270	0.039907
09:49:02.669	0.043033
09:49:02.969	0.039412
09:49:03.269	0.020854
09:49:03.670	0.007914
09:49:03.970	-0.002134
09:49:04.370	-0.012599
09:49:04.670	-0.018330
09:49:05.069	-0.021359
09:49:05.369	-0.020320
09:49:05.769	-0.021096
09:49:06.069	-0.015454
09:49:06.470	-0.013239
09:49:06.769	-0.010183
09:49:07.170	-0.003493
09:49:07.470	-0.000680
09:49:07.869	0.006583
09:49:08.170	0.006841
09:49:08.570	0.008559
09:49:08.869	0.008632
09:49:09.170	0.003716
09:49:09.569	-0.002327
09:49:09.869	-0.002280
09:49:10.270	-0.011936
09:49:10.569	-0.017599
09:49:10.870	-0.018124
09:49:11.269	-0.014925
09:49:11.569	-0.008432
09:49:11.970	-0.008132
09:49:12.269	-0.007201
09:49:12.569	-0.004356
09:49:12.969	0.003795
09:49:13.270	-0.000943
09:49:13.670	0.004445
09:49:13.970	-0.000552
09:49:14.370	-0.000492
09:49:14.670	-0.004636
09:49:14.970	-0.005819
09:49:15.369	-0.012484
09:49:15.670	-0.014222
09:49:15.969	-0.013668
09:49:16.370	-0.002549
09:49:16.669	0.030738
09:49:17.069	0.055326
09:49:17.370	0.067957
09:49:17.769	0.079034
09:49:18.069	0.087531
09:49:18.469	0.102248
09:49:18.770	0.106536
09:49:19.170	0.100353
09:49:19.469	0.074232
09:49:19.870	0.038537
09:49:20.170	0.022221
09:49:20.570	-0.002738
09:49:20.869	-0.008839
09:49:21.270	-0.013306
09:49:21.569	-0.013620
09:49:21.870	-0.020458
09:49:22.269	-0.022552
09:49:22.570	-0.023504
09:49:22.969	-0.029032
09:49:23.270	-0.034238
09:49:23.670	-0.029631
09:49:23.969	-0.030018
09:49:24.270	-0.027260
09:49:24.669	-0.028477
09:49:24.970	-0.027794
09:49:25.269	-0.025312
09:49:25.669	-0.029506
09:49:25.969	-0.033762
09:49:26.369	-0.037416
09:49:26.670	-0.036833
09:49:27.070	-0.035734
09:49:27.370	-0.038628
09:49:27.769	-0.043965
09:49:28.070	-0.042857
09:49:28.470	-0.041119
09:49:28.769	-0.040943
09:49:29.070	-0.038780
09:49:29.470	-0.035567
09:49:29.770	-0.016116
09:49:30.070	0.029563
09:49:30.469	0.053112
09:49:30.770	0.102944
09:49:31.070	0.127806
09:49:31.470	0.149554
09:49:31.770	0.162909
09:49:32.071	0.188118
09:49:32.470	0.193347
09:49:32.770	0.187760
09:49:33.170	0.142286
09:49:33.470	0.081177
09:49:33.770	0.058784
09:49:34.170	0.035624
09:49:34.469	0.023655
09:49:34.870	0.005191
09:49:35.170	-0.005266
09:49:35.570	-0.022574
09:49:35.869	-0.034345
09:49:36.270	-0.033786
09:49:36.570	-0.038585
09:49:36.870	-0.042307
09:49:37.270	-0.042312
09:49:37.569	-0.042268
09:49:37.970	-0.043590
09:49:38.270	-0.041609
09:49:38.570	-0.045228
09:49:38.970	-0.045865
09:49:39.270	-0.043738
09:49:39.670	-0.040546
09:49:39.970	-0.038138
09:49:40.370	-0.036469
09:49:40.670	-0.035492
09:49:41.070	-0.032000
09:49:41.371	-0.026780
09:49:41.771	-0.019991
09:49:42.070	-0.020845
09:49:42.470	-0.018214
09:49:42.769	-0.015675
09:49:43.170	-0.010507
09:49:43.469	-0.007794
09:49:43.869	0.002304
09:49:44.169	0.007377
09:49:44.470	0.011312
09:49:44.870	0.005596
09:49:45.169	0.010427
09:49:45.570	0.009848
09:49:45.870	0.005417
09:49:46.170	-0.006889
09:49:46.570	-0.026106
09:49:46.970	-0.035079
09:49:47.270	-0.042182
09:49:47.670	-0.043432
09:49:47.970	-0.042977
09:49:48.369	-0.043026
09:49:48.670	-0.046833
09:49:48.970	-0.046248
09:49:49.369	-0.046707
09:49:49.670	-0.045615
09:49:49.969	-0.045795
09:49:50.370	-0.046724
09:49:50.670	-0.045605
09:49:51.070	-0.045353
09:49:51.371	-0.044233
09:49:51.770	-0.044472
09:49:52.071	-0.045046
09:49:52.470	-0.044202
09:49:52.770	-0.044995
09:49:53.170	-0.044714
09:49:53.470	-0.040759
09:49:53.870	-0.042656
09:49:54.170	-0.042811
09:49:54.570	-0.037026
09:49:54.870	-0.032697
09:49:55.271	-0.030125
09:49:55.570	-0.026971
09:49:55.970	-0.025973
09:49:56.269	-0.026613
09:49:56.670	-0.027564
09:49:56.970	-0.026105
09:49:57.270	-0.029864
09:49:57.669	-0.036122
09:49:57.970	-0.036911
09:49:58.270	-0.037441
09:49:58.670	-0.038999
09:49:58.970	-0.038093
09:49:59.370	-0.038321
09:49:59.670	-0.039069
09:49:59.970	-0.036746
09:50:00.370	-0.034805
09:50:00.670	-0.037148
09:50:01.070	-0.035601
09:50:01.370	-0.038185
09:50:01.770	-0.037873
09:50:02.070	-0.040604
09:50:02.471	-0.039205
09:50:02.769	-0.040371
09:50:03.170	-0.042062
09:50:03.470	-0.043097
09:50:03.870	-0.041724
09:50:04.170	-0.044188
09:50:04.470	-0.045937
09:50:04.870	-0.044079
09:50:05.170	-0.044437
09:50:05.570	-0.045488
09:50:05.870	-0.046106
09:50:06.270	-0.044865
09:50:06.570	-0.047285
09:50:06.970	-0.046265
09:50:07.270	-0.046080
09:50:07.670	-0.044420
09:50:07.970	-0.042127
09:50:08.370	-0.040577
09:50:08.670	-0.034746
09:50:09.070	-0.028849
09:50:09.370	-0.019839
09:50:09.770	-0.013868
09:50:10.070	-0.010350
09:50:10.370	-0.002508
09:50:10.770	-0.007818
09:50:11.069	-0.007411
09:50:11.469	-0.010003
09:50:11.770	-0.008966
09:50:12.169	-0.016928
09:50:12.470	-0.024464
09:50:12.870	-0.026552
09:50:13.170	-0.038895
09:50:13.570	-0.042007
09:50:13.870	-0.042996
09:50:14.170	-0.045574
09:50:14.570	-0.047169
09:50:14.870	-0.048154
09:50:15.170	-0.050088
09:50:15.570	-0.051015
09:50:15.870	-0.051221
09:50:16.170	-0.051163
09:50:16.570	-0.051804
09:50:16.870	-0.050711
09:50:17.270	-0.051858
09:50:17.570	-0.051502
09:50:17.871	-0.051029
09:50:18.270	-0.052645
09:50:18.670	-0.051788
09:50:18.970	-0.052890
09:50:19.370	-0.052455
09:50:19.670	-0.052326
09:50:20.070	-0.054075
09:50:20.370	-0.052374
09:50:20.770	-0.051590
09:50:21.070	-0.050804
09:50:21.370	-0.052100
09:50:21.770	-0.053132
09:50:22.070	-0.053745
09:50:22.370	-0.052870
09:50:22.769	-0.052687
09:50:23.070	-0.056359
09:50:23.370	-0.055392
09:50:23.770	-0.053988
09:50:24.070	-0.054356
09:50:24.470	-0.052072
09:50:24.769	-0.053289
09:50:25.170	-0.051153
09:50:25.470	-0.052838
09:50:25.870	-0.053313
09:50:26.170	-0.054468
09:50:26.570	-0.053751
09:50:26.870	-0.054356
09:50:27.170	-0.053266
09:50:27.570	-0.053668
09:50:27.870	-0.054315
09:50:28.170	-0.052495
09:50:28.570	-0.054969
09:50:28.870	-0.055965
09:50:29.170	-0.053259
09:50:29.570	-0.051630
09:50:29.870	-0.052043
09:50:30.170	-0.053071
09:50:30.570	-0.054883
09:50:30.870	-0.052518
09:50:31.269	-0.054755
09:50:31.570	-0.057063
09:50:31.970	-0.052799
09:50:32.271	-0.053833
09:50:32.670	-0.050982
09:50:32.970	-0.052677
09:50:33.370	-0.055199
09:50:33.670	-0.052351
09:50:34.070	-0.054121
09:50:34.370	-0.053516
09:50:34.770	-0.052103
09:50:35.070	-0.052996
09:50:35.470	-0.053305
09:50:35.770	-0.054660
09:50:36.169	-0.054575
09:50:36.470	-0.055330
09:50:36.870	-0.054175
09:50:37.170	-0.052716
09:50:37.470	-0.052536
09:50:37.870	-0.054308
09:50:38.170	-0.054815
09:50:38.570	-0.053954
09:50:38.870	-0.053857
09:50:39.170	-0.053394
09:50:39.570	-0.053470
09:50:39.870	-0.055072
09:50:40.270	-0.055147
09:50:40.570	-0.054095
09:50:40.970	-0.055318
09:50:41.270	-0.053744
09:50:41.670	-0.055051
09:50:41.970	-0.054225
09:50:42.370	-0.055215
09:50:42.670	-0.054086
09:50:43.070	-0.054371
09:50:43.370	-0.054783
09:50:43.770	-0.055362
09:50:44.070	-0.055756
09:50:44.470	-0.055208
09:50:44.770	-0.053009
09:50:45.170	-0.053922
09:50:45.470	-0.055765
09:50:45.870	-0.053799
09:50:46.170	-0.055597
09:50:46.470	-0.055215
09:50:46.870	-0.055149
09:50:47.271	-0.054401
09:50:47.570	-0.054159
09:50:47.970	-0.055652
09:50:48.270	-0.054870
09:50:48.670	-0.055243
09:50:48.970	-0.053848
09:50:49.370	-0.053698
09:50:49.670	-0.054575
09:50:50.070	-0.054952
09:50:50.370	-0.054867
09:50:50.770	-0.055478
09:50:51.070	-0.055341
09:50:51.470	-0.053857
09:50:51.770	-0.054857
09:50:52.170	-0.053131
09:50:52.470	-0.053732
09:50:52.870	-0.052950
09:50:53.170	-0.052386
09:50:53.570	-0.053530
09:50:53.870	-0.054216
09:50:54.270	-0.055664
09:50:54.570	-0.053345
09:50:54.971	-0.054765
09:50:55.270	-0.054909
09:50:55.670	-0.055143
09:50:55.970	-0.054588
09:50:56.370	-0.052549
09:50:56.670	-0.052669
09:50:57.070	-0.055012
09:50:57.370	-0.055478
09:50:57.770	-0.054538
09:50:58.070	-0.055517
09:50:58.470	-0.054469
09:50:58.770	-0.053919
09:50:59.170	-0.056274
09:50:59.470	-0.055669
09:50:59.870	-0.054468
09:51:00.170	-0.056282
09:51:00.470	-0.055252
09:51:00.870	-0.055802
09:51:01.170	-0.054765
09:51:01.470	-0.054913
09:51:01.870	-0.053149
09:51:02.170	-0.054739
09:51:02.570	-0.054550
09:51:02.870	-0.054917
09:51:03.270	-0.055276
09:51:03.570	-0.055623
09:51:03.970	-0.057322
09:51:04.270	-0.054184
09:51:04.570	-0.053677
09:51:04.970	-0.054791
09:51:05.270	-0.054713
09:51:05.670	-0.053951
09:51:05.970	-0.054200
09:51:06.371	-0.054333
09:51:06.670	-0.055097
09:51:07.070	-0.055242
09:51:07.370	-0.055020
09:51:07.770	-0.055514
09:51:08.070	-0.054400
09:51:08.370	-0.056591
09:51:08.770	-0.055313
09:51:09.070	-0.053221
09:51:09.470	-0.053515
09:51:09.770	-0.054645
09:51:10.070	-0.055405
09:51:10.470	-0.054527
09:51:10.770	-0.055364
09:51:11.170	-0.055681
09:51:11.471	-0.054260
09:51:11.870	-0.053709
09:51:12.170	-0.056510
09:51:12.470	-0.054753
09:51:12.870	-0.054303
09:51:13.170	-0.052637
09:51:13.570	-0.056505
09:51:13.870	-0.055482
09:51:14.270	-0.056793
09:51:14.571	-0.055570
09:51:14.971	-0.053384
09:51:15.270	-0.054976
09:51:15.670	-0.056235
09:51:15.970	-0.055971
09:51:16.370	-0.057543
09:51:16.671	-0.055218
09:51:17.070	-0.054584
09:51:17.370	-0.054253
09:51:17.770	-0.054120
09:51:18.070	-0.054493
09:51:18.470	-0.055737
09:51:18.770	-0.054269
09:51:19.170	-0.051975
09:51:19.470	-0.054918
09:51:19.870	-0.053100
09:51:20.170	-0.052809
09:51:20.570	-0.054977
09:51:20.870	-0.054641
09:51:21.270	-0.054831
09:51:21.570	-0.052356
09:51:21.970	-0.054420
09:51:22.270	-0.054630
09:51:22.670	-0.052868
09:51:22.970	-0.054820
09:51:23.370	-0.052180
09:51:23.670	-0.054447
09:51:24.070	-0.055464
09:51:24.370	-0.055803
09:51:24.770	-0.053819
09:51:25.070	-0.056626
09:51:25.470	-0.056022
09:51:25.770	-0.055511
09:51:26.170	-0.054418
09:51:26.470	-0.055306
09:51:26.870	-0.057439
09:51:27.170	-0.054531
09:51:27.570	-0.055218
09:51:27.870	-0.054482
09:51:28.270	-0.056721
09:51:28.570	-0.057082
09:51:28.970	-0.057180
09:51:29.271	-0.056102
09:51:29.670	-0.056733
09:51:29.970	-0.056218
09:51:30.370	-0.056062
09:51:30.670	-0.056532
09:51:31.070	-0.054610
09:51:31.370	-0.052892
09:51:31.770	-0.052058
09:51:32.070	-0.054262
09:51:32.470	-0.052717
09:51:32.770	-0.052901
09:51:33.170	-0.051915
09:51:33.471	-0.052286
09:51:33.770	-0.054293
09:51:34.170	-0.055289
09:51:34.470	-0.053157
09:51:34.871	-0.054771
09:51:35.270	-0.054927
09:51:35.571	-0.055986
09:51:35.970	-0.055806
09:51:36.270	-0.054888
09:51:36.671	-0.055604
09:51:36.970	-0.054870
09:51:37.370	-0.055933
09:51:37.670	-0.057517
09:51:38.070	-0.056655
09:51:38.370	-0.055304
09:51:38.671	-0.053174
09:51:39.070	-0.059398
09:51:39.370	-0.054187
09:51:39.770	-0.052808
09:51:40.070	-0.053531
09:51:40.470	-0.053663
09:51:40.770	-0.051942
09:51:41.170	-0.050851
09:51:41.470	-0.050465
09:51:41.871	-0.048058
09:51:42.171	-0.042530
09:51:42.570	-0.039593
09:51:42.871	-0.037696
09:51:43.271	-0.036901
09:51:43.570	-0.036745
09:51:43.871	-0.037188
09:51:44.271	-0.037231
09:51:44.570	-0.036544
09:51:44.970	-0.035525
09:51:45.270	-0.031786
09:51:45.670	-0.027434
09:51:45.970	-0.020358
09:51:46.370	-0.011231
09:51:46.670	-0.005099
09:51:47.071	-0.003864
09:51:47.470	0.000188
09:51:47.771	0.000746
09:51:48.170	-0.000173
09:51:48.470	-0.007810
09:51:48.870	-0.015215
09:51:49.170	-0.017417
09:51:49.570	-0.027425
09:51:49.871	-0.032073
09:51:50.270	-0.033024
09:51:50.570	-0.034630
09:51:50.971	-0.034871
09:51:51.270	-0.037486
09:51:51.670	-0.035234
09:51:51.970	-0.038491
09:51:52.370	-0.039290
09:51:52.670	-0.037898
09:51:53.070	-0.035126
09:51:53.370	-0.034441
09:51:53.770	-0.037177
09:51:54.070	-0.036325
09:51:54.471	-0.035186
09:51:54.770	-0.035102
09:51:55.170	-0.028304
09:51:55.470	-0.025552
09:51:55.871	-0.024194
09:51:56.170	-0.016612
09:51:56.571	-0.002638
09:51:56.870	0.006861
09:51:57.270	0.017223
09:51:57.571	0.026289
09:51:57.970	0.027646
09:51:58.270	0.031784
09:51:58.671	0.031829
09:51:58.970	0.025745
09:51:59.370	0.018844
09:51:59.670	0.012089
09:52:00.071	-0.003718
09:52:00.370	-0.018572
09:52:00.771	-0.028424
09:52:01.070	-0.031928
09:52:01.470	-0.042367
09:52:01.770	-0.044946
09:52:02.170	-0.046959
09:52:02.470	-0.049696
09:52:02.870	-0.053247
09:52:03.270	-0.054451
09:52:03.570	-0.053891
09:52:03.970	-0.053825
09:52:04.270	-0.055010
09:52:04.671	-0.054897
09:52:04.970	-0.055080
09:52:05.370	-0.057447
09:52:05.671	-0.057166
09:52:05.970	-0.055484
09:52:06.371	-0.057170
09:52:06.671	-0.055174
09:52:07.070	-0.057034
09:52:07.370	-0.054957
09:52:07.771	-0.057323
09:52:08.071	-0.058013
09:52:08.470	-0.058360
09:52:08.771	-0.057581
09:52:09.170	-0.057542
09:52:09.470	-0.058526
09:52:09.870	-0.057802
09:52:10.170	-0.057835
09:52:10.570	-0.058290
09:52:10.870	-0.058843
09:52:11.271	-0.057981
09:52:11.570	-0.057019
09:52:11.971	-0.057656
09:52:12.270	-0.058834
09:52:12.671	-0.059513
09:52:12.970	-0.059888
09:52:13.370	-0.058867
09:52:13.670	-0.058580
09:52:14.070	-0.059684
09:52:14.371	-0.058426
09:52:14.771	-0.059063
09:52:15.070	-0.059995
09:52:15.471	-0.060435
09:52:15.770	-0.060405
09:52:16.171	-0.060680
09:52:16.470	-0.060185
09:52:16.870	-0.060691