Chart Recorder Data File Tue, Sep 24, 2024 11:20 AM
Time (s)	CH1 (V)  
11:17:52.198	2.674291
11:17:53.898	2.666903
11:17:54.298	2.638566
11:17:54.598	2.624217
11:17:54.998	2.637214
11:17:55.298	2.622898
11:17:55.699	2.671249
11:17:55.998	2.670375
11:17:56.398	2.629620
11:17:56.698	2.614041
11:17:57.098	2.610502
11:17:57.399	2.603462
11:17:57.799	2.652965
11:17:58.098	2.714481
11:17:58.498	2.686256
11:17:58.798	2.702504
11:17:59.198	2.712575
11:17:59.498	2.605917
11:17:59.898	2.654209
11:18:00.199	2.737743
11:18:00.598	2.753094
11:18:00.898	2.653110
11:18:01.298	2.709739
11:18:01.599	2.751637
11:18:01.998	2.617005
11:18:02.298	2.589897
11:18:02.699	2.579725
11:18:02.998	2.584303
11:18:03.398	2.567640
11:18:03.699	2.536374
11:18:04.098	2.519124
11:18:04.398	2.492436
11:18:04.798	2.461121
11:18:05.199	2.504136
11:18:05.498	2.497656
11:18:05.898	2.521329
11:18:06.199	2.485608
11:18:06.598	2.507249
11:18:06.898	2.501352
11:18:07.198	2.455306
11:18:07.598	2.431943
11:18:07.898	2.400886
11:18:08.298	2.384791
11:18:08.598	2.370748
11:18:08.999	2.330644
11:18:09.298	2.326260
11:18:09.699	2.273451
11:18:09.998	2.245686
11:18:10.398	2.227039
11:18:10.698	2.192424
11:18:10.998	2.192947
11:18:11.398	2.181475
11:18:11.698	2.207891
11:18:12.098	2.318981
11:18:12.399	2.357015
11:18:12.798	2.503486
11:18:13.098	2.620525
11:18:13.498	2.787414
11:18:13.799	2.763472
11:18:14.098	2.753595
11:18:14.498	2.864326
11:18:14.798	2.859775
11:18:15.198	2.827600
11:18:15.499	2.888728
11:18:15.898	2.856019
11:18:16.199	2.820216
11:18:16.598	2.820089
11:18:16.899	2.745994
11:18:17.198	2.733278
11:18:17.598	2.761237
11:18:17.898	2.723648
11:18:18.198	2.707202
11:18:18.598	2.636193
11:18:18.898	2.591209
11:18:19.299	2.502645
11:18:19.598	2.330958
11:18:19.999	2.045456
11:18:20.298	1.504444
11:18:21.598	1.354478
11:18:21.899	1.283111
11:18:22.199	1.205323
11:18:22.599	1.137011
11:18:22.898	1.130707
11:18:23.298	1.065396
11:18:23.598	1.005435
11:18:23.999	1.024497
11:18:24.298	1.004484
11:18:24.698	0.986518
11:18:24.999	0.966337
11:18:25.299	0.981238
11:18:25.698	0.939180
11:18:25.999	0.946646
11:18:26.298	0.966826
11:18:26.698	0.998259
11:18:26.999	1.023980
11:18:27.398	1.115989
11:18:27.699	1.292281
11:18:28.098	1.518302
11:18:28.398	1.620181
11:18:28.799	1.781413
11:18:29.099	1.920564
11:18:29.498	1.960335
11:18:29.798	2.010023
11:18:30.199	2.142422
11:18:30.499	2.348476
11:18:31.799	2.377142
11:18:32.099	2.388472
11:18:32.498	2.476939
11:18:32.798	2.489547
11:18:33.198	2.474865
11:18:33.598	2.473344
11:18:33.899	2.576639
11:18:34.299	2.531650
11:18:34.599	2.437548
11:18:34.998	2.140298
11:18:35.298	1.453440
11:18:36.599	1.327109
11:18:36.899	1.275431
11:18:37.299	1.133057
11:18:37.598	1.088704
11:18:37.999	1.025568
11:18:38.299	1.033342
11:18:38.699	1.008307
11:18:38.998	0.989295
11:18:39.399	0.948394
11:18:39.699	0.935580
11:18:40.098	0.888556
11:18:40.399	0.890792
11:18:40.799	0.859692
11:18:41.098	0.880989
11:18:41.499	0.842915
11:18:41.798	0.844734
11:18:42.199	0.839138
11:18:42.499	0.807628
11:18:42.899	0.753590
11:18:43.199	0.719602
11:18:43.598	0.756198
11:18:43.899	0.723373
11:18:44.198	0.721503
11:18:44.598	0.755103
11:18:44.898	0.763801
11:18:45.198	0.744219
11:18:45.599	0.758872
11:18:45.899	0.776894
11:18:46.298	0.747926
11:18:46.698	0.735274
11:18:46.998	0.782294
11:18:47.399	0.757273
11:18:47.699	0.725974
11:18:48.099	0.709224
11:18:48.399	0.744933
11:18:48.799	0.731303
11:18:49.099	0.710300
11:18:49.398	0.714727
11:18:49.799	0.691157
11:18:50.099	0.730021
11:18:50.499	0.730905
11:18:50.798	0.711173
11:18:51.199	0.689870
11:18:51.498	0.688226
11:18:51.899	0.653808
11:18:52.199	0.686953
11:18:52.499	0.694478
11:18:52.899	0.655657
11:18:53.199	0.623072
11:18:53.599	0.604306
11:18:53.898	0.603760
11:18:54.198	0.600753
11:18:54.598	0.594395
11:18:54.899	0.598342
11:18:55.200	0.582186
11:18:55.599	0.550285
11:18:55.899	0.596670
11:18:56.299	0.549560
11:18:56.599	0.519147
11:18:56.999	0.490568
11:18:57.299	0.506065
11:18:57.698	0.489370
11:18:57.999	0.474032
11:18:58.399	0.431840
11:18:58.699	0.413393
11:18:59.099	0.427710
11:18:59.399	0.431015
11:18:59.798	0.414572
11:19:00.099	0.385298
11:19:00.398	0.369463
11:19:00.799	0.351020
11:19:01.099	0.384027
11:19:01.399	0.360089
11:19:01.799	0.391188
11:19:02.099	0.397495
11:19:02.499	0.383930
11:19:02.799	0.369686
11:19:03.199	0.371995
11:19:03.498	0.357886
11:19:03.899	0.349166
11:19:04.198	0.363418
11:19:04.499	0.361054
11:19:04.899	0.362890
11:19:05.299	0.419072
11:19:05.599	0.403722
11:19:05.999	0.445465
11:19:06.299	0.446519
11:19:06.698	0.382677
11:19:06.999	0.366965
11:19:07.399	0.377814
11:19:07.699	0.392427
11:19:08.099	0.428779
11:19:08.399	0.446829
11:19:08.799	0.416892
11:19:09.099	0.411343
11:19:09.499	0.410407
11:19:09.799	0.395759
11:19:10.199	0.434333
11:19:10.499	0.416862
11:19:10.899	0.447716
11:19:11.198	0.455918
11:19:11.600	0.468495
11:19:11.899	0.527640
11:19:12.299	0.638465
11:19:12.599	0.700684
11:19:12.999	0.903842
11:19:13.299	1.062791
11:19:13.699	1.219916
11:19:13.998	1.309984
11:19:14.399	1.442524
11:19:14.699	1.518780
11:19:15.099	1.626880
11:19:15.399	1.653163
11:19:15.699	1.706277
11:19:16.099	1.739155
11:19:16.399	1.794169
11:19:16.798	1.811720
11:19:17.099	1.878143
11:19:17.399	1.898891
11:19:17.799	1.906801
11:19:18.099	1.957383
11:19:18.499	1.952426
11:19:18.798	1.963938
11:19:19.199	1.972675
11:19:19.499	1.967890
11:19:19.899	1.841606
11:19:20.199	1.627349
11:19:20.599	1.414396
11:19:20.899	1.328433
11:19:21.299	1.145182
11:19:21.599	0.974578
11:19:21.999	0.840425
11:19:22.299	0.791622
11:19:22.699	0.754959
11:19:22.999	0.695564
11:19:23.399	0.661778
11:19:23.699	0.663668
11:19:24.099	0.655707
11:19:24.399	0.653732
11:19:24.799	0.626084
11:19:25.099	0.643920
11:19:25.399	0.629644
11:19:25.799	0.634592
11:19:26.099	0.662179
11:19:26.399	0.665950
11:19:26.799	0.681927
11:19:27.099	0.739975
11:19:27.498	0.725755
11:19:27.799	0.735739
11:19:28.199	0.741917
11:19:28.499	0.744245
11:19:28.899	0.807162
11:19:29.198	0.801191
11:19:29.599	0.801658
11:19:29.899	0.882379
11:19:30.299	0.864002
11:19:30.599	0.860642
11:19:30.999	0.876241
11:19:31.299	0.912297
11:19:31.699	0.950409
11:19:31.998	0.945676
11:19:32.399	0.879966
11:19:32.699	0.882420
11:19:33.099	0.878531
11:19:33.399	0.797140
11:19:33.799	0.745882
11:19:34.098	0.733789
11:19:34.498	0.715180
11:19:34.799	0.696295
11:19:35.199	0.667731
11:19:35.499	0.673923
11:19:35.899	0.618369
11:19:36.199	0.557275
11:19:36.599	0.553321
11:19:36.899	0.547931
11:19:37.299	0.511347
11:19:37.599	0.472189
11:19:37.999	0.469189
11:19:38.299	0.454069
11:19:38.699	0.432402
11:19:39.099	0.415458
11:19:39.399	0.387421
11:19:39.799	0.365247
11:19:40.099	0.365751
11:19:40.499	0.372856
11:19:40.799	0.378808
11:19:41.199	0.354486
11:19:41.498	0.331660
11:19:41.899	0.342635
11:19:42.198	0.340677
11:19:42.499	0.343536
11:19:42.899	0.316381
11:19:43.199	0.323809
11:19:43.599	0.306904
11:19:43.899	0.337285
11:19:44.299	0.323504
11:19:44.598	0.302922
11:19:44.999	0.306182
11:19:45.299	0.295847
11:19:45.699	0.274892
11:19:45.999	0.275303
11:19:46.399	0.290930
11:19:46.699	0.303669
11:19:47.099	0.283612
11:19:47.399	0.287954
11:19:47.799	0.291863
11:19:48.099	0.295093
11:19:48.499	0.301280
11:19:48.799	0.285900
11:19:49.199	0.273284
11:19:49.499	0.286757
11:19:49.799	0.299512
11:19:50.199	0.286479
11:19:50.499	0.284879
11:19:50.899	0.302134
11:19:51.199	0.286161
11:19:51.498	0.265024
11:19:51.899	0.277109